RamanShift,Intensity
180.91,254.00
183.74,286.00
186.56,434.00
189.39,593.00
192.21,836.00
195.03,1186.00
197.84,1716.00
200.66,2309.00
203.47,3050.00
206.28,3791.00
209.09,4490.00
211.89,5242.00
214.70,5813.00
217.50,6280.00
220.30,6671.00
223.10,6872.00
225.89,7105.00
228.69,7328.00
231.48,7486.00
234.27,7698.00
237.05,7783.00
239.84,7730.00
242.62,7582.00
245.40,7243.00
248.18,6777.00
250.96,6459.00
253.73,6078.00
256.51,5633.00
259.28,5241.00
262.05,4977.00
264.81,4723.00
267.58,4490.00
270.34,4247.00
273.10,4193.00
275.86,4119.00
278.61,4003.00
281.37,3865.00
284.12,3738.00
286.87,3675.00
289.62,3611.00
292.36,3664.00
295.11,3717.00
297.85,3653.00
300.59,3611.00
303.33,3622.00
306.06,3674.00
308.80,3675.00
311.53,3696.00
314.26,3674.00
316.99,3717.00
319.71,3675.00
322.44,3643.00
325.16,3685.00
327.88,3717.00
330.59,3643.00
333.31,3579.00
336.02,3484.00
338.73,3409.00
341.44,3462.00
344.15,3463.00
346.86,3505.00
349.56,3537.00
352.26,3558.00
354.96,3558.00
357.66,3431.00
360.35,3442.00
363.05,3452.00
365.74,3462.00
368.43,3484.00
371.12,3452.00
373.80,3558.00
376.48,3633.00
379.17,3548.00
381.85,3516.00
384.52,3590.00
387.20,3675.00
389.87,3569.00
392.54,3548.00
395.21,3632.00
397.88,3674.00
400.55,3611.00
403.21,3590.00
405.87,3633.00
408.53,3653.00
411.19,3601.00
413.84,3505.00
416.50,3589.00
419.15,3653.00
421.80,3622.00
424.45,3632.00
427.10,3611.00
429.74,3590.00
432.38,3526.00
435.02,3463.00
437.66,3442.00
440.30,3579.00
442.93,3590.00
445.56,3590.00
448.19,3632.00
450.82,3610.00
453.45,3558.00
456.07,3547.00
458.70,3558.00
461.32,3633.00
463.94,3674.00
466.55,3611.00
469.17,3611.00
471.78,3653.00
474.39,3675.00
477.00,3643.00
479.61,3695.00
482.22,3685.00
484.82,3611.00
487.42,3611.00
490.02,3536.00
492.62,3611.00
495.21,3696.00
497.81,3654.00
500.40,3589.00
502.99,3568.00
505.58,3632.00
508.17,3664.00
510.75,3643.00
513.33,3675.00
515.91,3569.00
518.49,3516.00
521.07,3537.00
523.65,3527.00
526.22,3537.00
528.79,3590.00
531.36,3695.00
533.93,3748.00
536.49,3759.00
539.06,3696.00
541.62,3696.00
544.18,3696.00
546.74,3632.00
549.30,3632.00
551.85,3685.00
554.40,3675.00
556.95,3675.00
559.50,3622.00
562.05,3632.00
564.59,3654.00
567.14,3686.00
569.68,3579.00
572.22,3558.00
574.76,3590.00
577.29,3589.00
579.83,3537.00
582.36,3526.00
584.89,3462.00
587.42,3473.00
589.95,3484.00
592.47,3420.00
594.99,3431.00
597.52,3452.00
600.04,3421.00
602.55,3410.00
605.07,3378.00
607.58,3399.00
610.09,3442.00
612.60,3505.00
615.11,3484.00
617.62,3389.00
620.12,3463.00
622.63,3474.00
625.13,3378.00
627.63,3377.00
630.13,3378.00
632.62,3325.00
635.12,3282.00
637.61,3315.00
640.10,3240.00
642.59,3240.00
645.07,3240.00
647.56,3282.00
650.04,3251.00
652.52,3251.00
655.00,3230.00
657.48,3251.00
659.96,3251.00
662.43,3262.00
664.90,3230.00
667.37,3272.00
669.84,3272.00
672.31,3262.00
674.78,3209.00
677.24,3219.00
679.70,3219.00
682.16,3230.00
684.62,3229.00
687.08,3167.00
689.53,3145.00
691.98,3145.00
694.43,3156.00
696.88,3123.00
699.33,3124.00
701.78,3102.00
704.22,3134.00
706.66,3166.00
709.10,3198.00
711.54,3209.00
713.98,3251.00
716.42,3378.00
718.85,3611.00
721.28,3759.00
723.71,3971.00
726.14,4141.00
728.57,4267.00
730.99,4288.00
733.41,4141.00
735.83,4076.00
738.25,3886.00
740.67,3632.00
743.09,3484.00
745.50,3293.00
747.91,3124.00
750.33,3039.00
752.73,3018.00
755.14,2912.00
757.55,2933.00
759.95,2933.00
762.35,2986.00
764.75,3018.00
767.15,2955.00
769.55,2880.00
771.95,2848.00
774.34,2838.00
776.73,2870.00
779.12,2891.00
781.51,2933.00
783.90,2860.00
786.28,2827.00
788.67,2870.00
791.05,2880.00
793.43,2848.00
795.80,2806.00
798.18,2828.00
800.56,2827.00
802.93,2849.00
805.30,2827.00
807.67,2764.00
810.04,2796.00
812.40,2838.00
814.77,2806.00
817.13,2785.00
819.49,2763.00
821.85,2743.00
824.21,2795.00
826.57,2764.00
828.92,2700.00
831.27,2690.00
833.63,2690.00
835.98,2679.00
838.32,2700.00
840.67,2669.00
843.01,2668.00
845.36,2701.00
847.70,2701.00
850.04,2658.00
852.37,2584.00
854.71,2583.00
857.05,2616.00
859.38,2605.00
861.71,2563.00
864.04,2531.00
866.37,2584.00
868.69,2658.00
871.02,2595.00
873.34,2562.00
875.66,2637.00
877.98,2637.00
880.30,2657.00
882.62,2647.00
884.93,2584.00
887.24,2648.00
889.55,2595.00
891.86,2541.00
894.17,2531.00
896.48,2562.00
898.78,2562.00
901.09,2530.00
903.39,2541.00
905.69,2520.00
907.99,2456.00
910.28,2478.00
912.58,2563.00
914.87,2605.00
917.16,2584.00
919.45,2573.00
921.74,2478.00
924.03,2446.00
926.31,2467.00
928.60,2500.00
930.88,2542.00
933.16,2520.00
935.44,2552.00
937.72,2467.00
939.99,2478.00
942.26,2594.00
944.54,2552.00
946.81,2552.00
949.08,2531.00
951.34,2594.00
953.61,2669.00
955.87,2657.00
958.14,2668.00
960.40,2658.00
962.66,2552.00
964.92,2489.00
967.17,2489.00
969.43,2478.00
971.68,2499.00
973.93,2414.00
976.18,2372.00
978.43,2350.00
980.68,2372.00
982.92,2393.00
985.17,2415.00
987.41,2351.00
989.65,2319.00
991.89,2266.00
994.12,2319.00
996.36,2372.00
998.59,2287.00
1000.83,2298.00
1003.06,2329.00
1005.29,2351.00
1007.51,2341.00
1009.74,2372.00
1011.97,2394.00
1014.19,2351.00
1016.41,2329.00
1018.63,2394.00
1020.85,2361.00
1023.07,2309.00
1025.28,2267.00
1027.49,2330.00
1029.71,2372.00
1031.92,2403.00
1034.13,2329.00
1036.33,2287.00
1038.54,2393.00
1040.74,2319.00
1042.95,2298.00
1045.15,2330.00
1047.35,2319.00
1049.55,2267.00
1051.74,2244.00
1053.94,2213.00
1056.13,2244.00
1058.32,2234.00
1060.51,2255.00
1062.70,2223.00
1064.89,2213.00
1067.08,2181.00
1069.26,2160.00
1071.44,2192.00
1073.63,2224.00
1075.81,2214.00
1077.98,2192.00
1080.16,2170.00
1082.34,2170.00
1084.51,2244.00
1086.68,2266.00
1088.85,2287.00
1091.02,2160.00
1093.19,2139.00
1095.35,2160.00
1097.52,2117.00
1099.68,2086.00
1101.84,2118.00
1104.00,2129.00
1106.16,2107.00
1108.32,2171.00
1110.48,2118.00
1112.63,2117.00
1114.78,2118.00
1116.93,2224.00
1119.08,2255.00
1121.23,2213.00
1123.38,2191.00
1125.52,2150.00
1127.67,2149.00
1129.81,2118.00
1131.95,2075.00
1134.09,2075.00
1136.22,2129.00
1138.36,2107.00
1140.50,2054.00
1142.63,2108.00
1144.76,2107.00
1146.89,2065.00
1149.02,2075.00
1151.15,2001.00
1153.27,2064.00
1155.40,2065.00
1157.52,2034.00
1159.64,1969.00
1161.76,2012.00
1163.88,2075.00
1165.99,2043.00
1168.11,2033.00
1170.22,2055.00
1172.34,2011.00
1174.45,2054.00
1176.56,2086.00
1178.66,2064.00
1180.77,2043.00
1182.88,2033.00
1184.98,2012.00
1187.08,2012.00
1189.18,2012.00
1191.28,2012.00
1193.38,1980.00
1195.47,1916.00
1197.57,1970.00
1199.66,2107.00
1201.75,2150.00
1203.85,2107.00
1205.93,2118.00
1208.02,2086.00
1210.11,2022.00
1212.19,2012.00
1214.28,2054.00
1216.36,2033.00
1218.44,2043.00
1220.52,2054.00
1222.59,2075.00
1224.67,2023.00
1226.74,2043.00
1228.82,2097.00
1230.89,2065.00
1232.96,2033.00
1235.03,2022.00
1237.10,2075.00
1239.16,2096.00
1241.23,2076.00
1243.29,2043.00
1245.35,2086.00
1247.41,2128.00
1249.47,2118.00
1251.53,2044.00
1253.58,1990.00
1255.64,2012.00
1257.69,1948.00
1259.74,1948.00
1261.79,1970.00
1263.84,1948.00
1265.89,1928.00
1267.93,2012.00
1269.98,2012.00
1272.02,1959.00
1274.06,1885.00
1276.10,1874.00
1278.14,1927.00
1280.18,1948.00
1282.22,1874.00
1284.25,1864.00
1286.28,1853.00
1288.32,1874.00
1290.35,1948.00
1292.38,1927.00
1294.40,1906.00
1296.43,1884.00
1298.46,1864.00
1300.48,1916.00
1302.50,1917.00
1304.52,1927.00
1306.54,1906.00
1308.56,1970.00
1310.58,1990.00
1312.59,1980.00
1314.60,2033.00
1316.62,2107.00
1318.63,2160.00
1320.64,2192.00
1322.65,2277.00
1324.65,2404.00
1326.66,2446.00
1328.66,2446.00
1330.66,2436.00
1332.67,2510.00
1334.67,2563.00
1336.66,2488.00
1338.66,2393.00
1340.66,2361.00
1342.65,2266.00
1344.65,2223.00
1346.64,2171.00
1348.63,2096.00
1350.62,2012.00
1352.60,2022.00
1354.59,2086.00
1356.57,2075.00
1358.56,2033.00
1360.54,1937.00
1362.52,1959.00
1364.50,1969.00
1366.48,1959.00
1368.46,1906.00
1370.43,1864.00
1372.41,1864.00
1374.38,1916.00
1376.35,1927.00
1378.32,1916.00
1380.29,1864.00
1382.25,1885.00
1384.22,1885.00
1386.18,1906.00
1388.15,1821.00
1390.11,1779.00
1392.07,1842.00
1394.03,1938.00
1395.99,1885.00
1397.94,1874.00
1399.90,1874.00
1401.85,1949.00
1403.80,1938.00
1405.76,1821.00
1407.71,1811.00
1409.65,1916.00
1411.60,1853.00
1413.55,1790.00
1415.49,1737.00
1417.44,1800.00
1419.38,1800.00
1421.32,1715.00
1423.26,1631.00
1425.19,1705.00
1427.13,1758.00
1429.07,1736.00
1431.00,1737.00
1432.93,1705.00
1434.86,1694.00
1436.79,1737.00
1438.72,1726.00
1440.65,1737.00
1442.57,1726.00
1444.50,1716.00
1446.42,1694.00
1448.34,1737.00
1450.26,1737.00
1452.18,1705.00
1454.10,1705.00
1456.02,1758.00
1457.93,1737.00
1459.85,1736.00
1461.76,1737.00
1463.67,1694.00
1465.58,1662.00
1467.49,1683.00
1469.40,1694.00
1471.31,1705.00
1473.21,1694.00
1475.11,1737.00
1477.02,1716.00
1478.92,1610.00
1480.82,1651.00
1482.72,1684.00
1484.61,1694.00
1486.51,1621.00
1488.40,1599.00
1490.30,1609.00
1492.19,1578.00
1494.08,1588.00
1495.97,1567.00
1497.86,1556.00
1499.74,1589.00
1501.63,1557.00
1503.51,1567.00
1505.40,1599.00
1507.28,1599.00
1509.16,1546.00
1511.04,1557.00
1512.92,1589.00
1514.79,1567.00
1516.67,1589.00
1518.54,1567.00
1520.42,1578.00
1522.29,1567.00
1524.16,1589.00
1526.03,1589.00
1527.89,1568.00
1529.76,1610.00
1531.63,1578.00
1533.49,1567.00
1535.35,1621.00
1537.21,1546.00
1539.07,1493.00
1540.93,1493.00
1542.79,1461.00
1544.65,1462.00
1546.50,1504.00
1548.36,1556.00
1550.21,1472.00
1552.06,1461.00
1553.91,1451.00
1555.76,1504.00
1557.61,1536.00
1559.45,1472.00
1561.30,1430.00
1563.14,1430.00
1564.98,1493.00
1566.82,1504.00
1568.67,1450.00
1570.50,1482.00
1572.34,1430.00
1574.18,1440.00
1576.01,1472.00
1577.85,1461.00
1579.68,1472.00
1581.51,1472.00
1583.34,1398.00
1585.17,1398.00
1587.00,1440.00
1588.82,1418.00
1590.65,1418.00
1592.47,1441.00
1594.30,1462.00
1596.12,1397.00
1597.94,1355.00
1599.76,1355.00
1601.57,1398.00
1603.39,1387.00
1605.21,1345.00
1607.02,1313.00
1608.83,1323.00
1610.64,1281.00
1612.45,1323.00
1614.26,1366.00
1616.07,1355.00
1617.88,1303.00
1619.68,1356.00
1621.49,1292.00
1623.29,1250.00
1625.09,1324.00
1626.89,1356.00
1628.69,1314.00
1630.49,1313.00
1632.29,1292.00
1634.08,1324.00
1635.88,1281.00
1637.67,1250.00
1639.46,1239.00
1641.25,1197.00
1643.04,1239.00
1644.83,1218.00
1646.62,1261.00
1648.41,1217.00
1650.19,1186.00
1651.97,1197.00
1653.76,1239.00
1655.54,1207.00
1657.32,1155.00
1659.10,1154.00
1660.88,1165.00
1662.65,1186.00
1664.43,1144.00
1666.20,1101.00
1667.97,1196.00
1669.75,1155.00
1671.52,1112.00
1673.29,1102.00
1675.05,1070.00
1676.82,1143.00
1678.59,1133.00
1680.35,1070.00
1682.11,1080.00
1683.88,1059.00
1685.64,1080.00
1687.40,1080.00
1689.16,1059.00
1690.91,1112.00
1692.67,1133.00
1694.42,1102.00
1696.18,1048.00
1697.93,1016.00
1699.68,1017.00
1701.43,1038.00
1703.18,1070.00
1704.93,1038.00
1706.68,1027.00
1708.42,1017.00
1710.17,996.00
1711.91,1017.00
1713.65,1059.00
1715.39,1048.00
1717.13,1028.00
1718.87,1016.00
1720.61,995.00
1722.35,996.00
1724.08,995.00
1725.81,985.00
1727.55,964.00
1729.28,953.00
1731.01,995.00
1732.74,1049.00
1734.47,953.00
1736.19,963.00
1737.92,943.00
1739.64,985.00
1741.37,911.00
1743.09,879.00
1744.81,974.00
1746.53,964.00
1748.25,953.00
1749.97,975.00
1751.68,953.00
1753.40,931.00
1755.11,921.00
1756.83,911.00
1758.54,889.00
1760.25,985.00
1761.96,964.00
1763.67,932.00
1765.38,879.00
1767.08,921.00
1768.79,985.00
1770.49,953.00
1772.19,868.00
1773.90,826.00
1775.60,857.00
1777.30,900.00
1778.99,889.00
1780.69,932.00
1782.39,931.00
1784.08,932.00
1785.78,921.00
1787.47,847.00
1789.16,848.00
1790.85,890.00
1792.54,900.00
1794.23,900.00
1795.91,879.00
1797.60,847.00
1799.28,837.00
1800.97,868.00
1802.65,932.00
1804.33,890.00
1806.01,847.00
1807.69,826.00
1809.37,858.00
1811.05,826.00
1812.72,868.00
1814.40,847.00
1816.07,847.00
1817.74,826.00
1819.41,826.00
1821.08,837.00
1822.75,805.00
1824.42,826.00
1826.09,837.00
1827.75,815.00
1829.42,784.00
1831.08,858.00
1832.74,890.00
1834.40,858.00
1836.06,805.00
1837.72,837.00
1839.38,794.00
1841.04,795.00
1842.69,794.00
1844.35,762.00
1846.00,816.00
1847.65,826.00
1849.30,762.00
1850.95,805.00
1852.60,826.00
1854.25,868.00
1855.90,858.00
1857.54,847.00
1859.19,794.00
1860.83,816.00
1862.47,826.00
1864.12,794.00
1865.76,752.00
1867.40,752.00
1869.03,741.00
1870.67,826.00
1872.31,794.00
1873.94,720.00
1875.57,698.00
1877.21,731.00
1878.84,783.00
1880.47,805.00
1882.10,741.00
1883.73,731.00
1885.35,731.00
1886.98,741.00
1888.61,742.00
1890.23,752.00
1891.85,721.00
1893.47,773.00
1895.09,752.00
1896.71,709.00
1898.33,763.00
1899.95,784.00
1901.57,710.00
1903.18,688.00
1904.80,710.00
1906.41,730.00
1908.02,742.00
1909.63,752.00
1911.24,752.00
1912.85,667.00
1914.46,699.00
1916.07,678.00
1917.67,710.00
1919.28,688.00
1920.88,699.00
1922.48,710.00
1924.08,731.00
1925.68,699.00
1927.28,720.00
1928.88,688.00
1930.48,678.00
1932.07,689.00
1933.67,720.00
1935.26,699.00
1936.86,689.00
1938.45,677.00
1940.04,731.00
1941.63,731.00
1943.22,688.00
1944.80,624.00
1946.39,636.00
1947.98,730.00
1949.56,657.00
1951.14,646.00
1952.73,635.00
1954.31,657.00
1955.89,689.00
1957.47,688.00
1959.05,646.00
1960.62,635.00
1962.20,657.00
1963.77,625.00
1965.35,635.00
1966.92,667.00
1968.49,657.00
1970.06,657.00
1971.63,678.00
1973.20,720.00
1974.77,656.00
1976.34,603.00
1977.90,656.00
1979.47,720.00
1981.03,698.00
1982.59,667.00
1984.15,677.00
1985.71,699.00
1987.27,720.00
1988.83,677.00
1990.39,625.00
1991.94,657.00
1993.50,688.00
1995.05,657.00
1996.61,646.00
1998.16,646.00
1999.71,677.00
2001.26,667.00
2002.81,678.00
2004.36,656.00
2005.91,614.00
2007.45,604.00
2009.00,593.00
2010.54,593.00
2012.08,593.00
2013.62,593.00
2015.17,614.00
2016.71,615.00
2018.24,615.00
2019.78,614.00
2021.32,635.00
2022.85,593.00
2024.39,604.00
2025.92,603.00
2027.46,583.00
2028.99,561.00
2030.52,604.00
2032.05,583.00
2033.58,582.00
2035.10,593.00
2036.63,624.00
2038.16,614.00
2039.68,603.00
2041.21,604.00
2042.73,614.00
2044.25,646.00
2045.77,635.00
2047.29,572.00
2048.81,551.00
2050.33,561.00
2051.84,572.00
2053.36,572.00
2054.87,562.00
2056.39,572.00
2057.90,593.00
2059.41,593.00
2060.92,582.00
2062.43,550.00
2063.94,550.00
2065.45,614.00
2066.95,624.00
2068.46,624.00
2069.96,614.00
2071.47,530.00
2072.97,572.00
2074.47,572.00
2075.97,530.00
2077.47,562.00
2078.97,572.00
2080.47,519.00
2081.96,540.00
2083.46,561.00
2084.95,551.00
2086.45,551.00
2087.94,529.00
2089.43,519.00
2090.92,509.00
2092.41,508.00
2093.90,509.00
2095.39,466.00
2096.88,509.00
2098.36,519.00
2099.85,498.00
2101.33,519.00
2102.81,530.00
2104.30,477.00
2105.78,487.00
2107.26,466.00
2108.74,508.00
2110.21,508.00
2111.69,550.00
2113.17,550.00
2114.64,508.00
2116.12,519.00
2117.59,519.00
2119.06,477.00
2120.53,487.00
2122.00,508.00
2123.47,498.00
2124.94,498.00
2126.41,487.00
2127.87,444.00
2129.34,445.00
2130.80,477.00
2132.27,498.00
2133.73,498.00
2135.19,519.00
2136.65,519.00
2138.11,498.00
2139.57,488.00
2141.03,529.00
2142.48,498.00
2143.94,498.00
2145.39,498.00
2146.85,455.00
2148.30,456.00
2149.75,434.00
2151.20,456.00
2152.65,466.00
2154.10,456.00
2155.55,466.00
2157.00,466.00
2158.44,497.00
2159.89,445.00
2161.33,455.00
2162.78,498.00
2164.22,456.00
2165.66,424.00
2167.10,424.00
2168.54,508.00
2169.98,476.00
2171.42,466.00
2172.85,455.00
2174.29,488.00
2175.72,445.00
2177.16,423.00
2178.59,477.00
2180.02,444.00
2181.45,477.00
2182.88,466.00
2184.31,476.00
2185.74,508.00
2187.17,465.00
2188.59,445.00
2190.02,445.00
2191.44,487.00
2192.87,466.00
2194.29,455.00
2195.71,445.00
2197.13,413.00
2198.55,413.00
2199.97,424.00
2201.39,424.00
2202.81,444.00
2204.22,402.00
2205.64,392.00
2207.05,402.00
2208.46,392.00
2209.88,445.00
2211.29,466.00
2212.70,434.00
2214.11,392.00
2215.52,466.00
2216.92,466.00
2218.33,434.00
2219.74,402.00
2221.14,402.00
2222.54,423.00
2223.95,402.00
2225.35,444.00
2226.75,509.00
2228.15,455.00
2229.55,424.00
2230.95,424.00
2232.35,370.00
2233.74,402.00
2235.14,392.00
2236.53,434.00
2237.93,476.00
2239.32,413.00
2240.71,381.00
2242.10,349.00
2243.49,381.00
2244.88,413.00
2246.27,370.00
2247.66,371.00
2249.04,392.00
2250.43,381.00
2251.81,392.00
2253.20,370.00
2254.58,434.00
2255.96,371.00
2257.34,339.00
2258.72,339.00
2260.10,350.00
2261.48,381.00
2262.86,339.00
2264.23,402.00
2265.61,392.00
2266.98,381.00
2268.36,413.00
2269.73,413.00
2271.10,413.00
2272.47,423.00
2273.84,381.00
2275.21,392.00
2276.58,381.00
2277.95,371.00
2279.31,360.00
2280.68,339.00
2282.05,360.00
2283.41,329.00
2284.77,360.00
2286.13,350.00
2287.50,318.00
2288.86,339.00
2290.22,349.00
2291.57,339.00
2292.93,318.00
2294.29,307.00
2295.64,360.00
2297.00,381.00
2298.35,360.00
2299.71,392.00
2301.06,370.00
2302.41,349.00
2303.76,349.00
2305.11,329.00
2306.46,296.00
2307.81,297.00
2309.15,317.00
2310.50,391.00
2311.84,370.00
2313.19,317.00
2314.53,318.00
2315.87,296.00
2317.22,382.00
2318.56,360.00
2319.90,360.00
2321.24,360.00
2322.57,350.00
2323.91,329.00
2325.25,317.00
2326.58,328.00
2327.92,349.00
2329.25,307.00
2330.58,286.00
2331.91,308.00
2333.25,296.00
2334.58,317.00
2335.90,349.00
2337.23,339.00
2338.56,318.00
2339.89,318.00
2341.21,296.00
2342.54,307.00
2343.86,317.00
2345.19,307.00
2346.51,317.00
2347.83,338.00
2349.15,297.00
2350.47,339.00
2351.79,328.00
2353.11,360.00
2354.42,360.00
2355.74,328.00
2357.06,307.00
2358.37,275.00
2359.68,296.00
2361.00,275.00
2362.31,307.00
2363.62,339.00
2364.93,318.00
2366.24,328.00
2367.55,307.00
2368.86,297.00
2370.16,275.00
2371.47,276.00
2372.77,275.00
2374.08,264.00
2375.38,318.00
2376.68,318.00
2377.98,296.00
2379.29,265.00
2380.59,339.00
2381.88,349.00
2383.18,360.00
2384.48,297.00
2385.78,254.00
2387.07,286.00
2388.37,307.00
2389.66,275.00
2390.95,254.00
2392.25,254.00
2393.54,297.00
2394.83,360.00
2396.12,329.00
2397.41,297.00
2398.70,318.00
2399.98,318.00
2401.27,296.00
2402.55,328.00
2403.84,317.00
2405.12,285.00
2406.41,275.00
2407.69,275.00
2408.97,254.00
2410.25,243.00
2411.53,317.00
2412.81,339.00
2414.09,275.00
2415.36,265.00
2416.64,297.00
2417.91,307.00
2419.19,265.00
2420.46,265.00
2421.74,307.00
2423.01,318.00
2424.28,275.00
2425.55,286.00
2426.82,275.00
2428.09,286.00
2429.36,254.00
2430.62,255.00
2431.89,285.00
2433.15,286.00
2434.42,265.00
2435.68,318.00
2436.94,265.00
2438.21,254.00
2439.47,307.00
2440.73,318.00
2441.99,286.00
2443.25,254.00
2444.51,275.00
2445.76,254.00
2447.02,276.00
2448.27,244.00
2449.53,211.00
2450.78,233.00
2452.03,254.00
2453.29,233.00
2454.54,254.00
2455.79,264.00
2457.04,275.00
2458.29,276.00
2459.54,265.00
2460.78,254.00
2462.03,296.00
2463.27,275.00
2464.52,233.00
2465.76,233.00
2467.01,275.00
2468.25,276.00
2469.49,297.00
2470.73,286.00
2471.97,254.00
2473.21,222.00
2474.45,276.00
2475.69,296.00
2476.92,254.00
2478.16,233.00
2479.39,244.00
2480.63,255.00
2481.86,255.00
2483.09,254.00
2484.32,296.00
2485.56,254.00
2486.79,233.00
2488.02,233.00
2489.24,233.00
2490.47,254.00
2491.70,233.00
2492.92,275.00
2494.15,286.00
2495.37,244.00
2496.60,233.00
2497.82,202.00
2499.04,233.00
2500.26,233.00
2501.48,201.00
2502.70,180.00
2503.92,148.00
2505.14,180.00
2506.36,222.00
2507.58,212.00
2508.79,212.00
2510.01,244.00
2511.22,233.00
2512.43,202.00
2513.64,254.00
2514.86,275.00
2516.07,254.00
2517.28,222.00
2518.49,233.00
2519.70,212.00
2520.90,223.00
2522.11,243.00
2523.32,233.00
2524.52,190.00
2525.73,190.00
2526.93,190.00
2528.13,159.00
2529.33,212.00
2530.54,222.00
2531.74,212.00
2532.94,233.00
2534.14,223.00
2535.33,243.00
2536.53,191.00
2537.73,180.00
2538.92,149.00
2540.12,191.00
2541.31,191.00
2542.51,212.00
2543.70,233.00
2544.89,233.00
2546.08,222.00
2547.27,202.00
2548.46,243.00
2549.65,244.00
2550.84,201.00
2552.03,212.00
2553.21,159.00
2554.40,191.00
2555.58,211.00
2556.77,201.00
2557.95,190.00
2559.13,233.00
2560.31,201.00
2561.50,202.00
2562.68,255.00
2563.85,233.00
2565.03,202.00
2566.21,212.00
2567.39,212.00
2568.56,191.00
2569.74,170.00
2570.91,191.00
2572.09,212.00
2573.26,149.00
2574.43,170.00
2575.61,202.00
2576.78,222.00
2577.95,180.00
2579.12,180.00
2580.29,170.00
2581.45,190.00
2582.62,159.00
2583.79,212.00
2584.95,233.00
2586.12,201.00
2587.28,211.00
2588.44,223.00
2589.61,190.00
2590.77,169.00
2591.93,170.00
2593.09,212.00
2594.25,169.00
2595.41,190.00
2596.56,190.00
2597.72,191.00
2598.88,180.00
2600.03,212.00
2601.19,191.00
2602.34,180.00
2603.50,169.00
2604.65,191.00
2605.80,127.00
2606.95,138.00
2608.10,201.00
2609.25,223.00
2610.40,212.00
2611.55,191.00
2612.70,201.00
2613.84,170.00
2614.99,170.00
2616.13,191.00
2617.28,201.00
2618.42,169.00
2619.56,148.00
2620.71,169.00
2621.85,170.00
2622.99,190.00
2624.13,212.00
2625.27,180.00
2626.40,169.00
2627.54,149.00
2628.68,127.00
2629.81,170.00
2630.95,169.00
2632.08,169.00
2633.22,190.00
2634.35,212.00
2635.48,169.00
2636.61,137.00
2637.74,190.00
2638.87,149.00
2640.00,148.00
2641.13,127.00
2642.26,106.00
2643.39,149.00
2644.51,148.00
2645.64,170.00
2646.76,190.00
2647.89,169.00
2649.01,149.00
2650.13,138.00
2651.25,137.00
2652.38,180.00
2653.50,170.00
2654.62,170.00
2655.73,128.00
2656.85,138.00
2657.97,137.00
2659.09,159.00
2660.20,148.00
2661.32,149.00
2662.43,106.00
2663.55,148.00
2664.66,137.00
2665.77,149.00
2666.88,106.00
2667.99,95.00
2669.10,158.00
2670.21,128.00
2671.32,117.00
2672.43,138.00
2673.54,170.00
2674.64,202.00
2675.75,191.00
2676.85,127.00
2677.96,137.00
2679.06,191.00
2680.16,223.00
2681.26,191.00
2682.37,127.00
2683.47,170.00
2684.57,169.00
2685.66,128.00
2686.76,149.00
2687.86,128.00
2688.96,127.00
2690.05,128.00
2691.15,85.00
2692.24,85.00
2693.34,106.00
2694.43,148.00
2695.52,170.00
2696.62,148.00
2697.71,116.00
2698.80,191.00
2699.89,128.00
2700.98,105.00
2702.06,95.00
2703.15,95.00
2704.24,148.00
2705.32,170.00
2706.41,180.00
2707.49,169.00
2708.58,138.00
2709.66,117.00
2710.74,149.00
2711.83,116.00
2712.91,85.00
2713.99,96.00
2715.07,159.00
2716.15,212.00
2717.22,138.00
2718.30,116.00
2719.38,127.00
2720.45,138.00
2721.53,106.00
2722.60,138.00
2723.68,159.00
2724.75,170.00
2725.82,106.00
2726.89,116.00
2727.97,128.00
2729.04,158.00
2730.11,148.00
2731.17,127.00
2732.24,149.00
2733.31,127.00
2734.38,128.00
2735.44,117.00
2736.51,127.00
2737.57,128.00
2738.64,127.00
2739.70,148.00
2740.76,106.00
2741.82,148.00
2742.89,159.00
2743.95,106.00
2745.01,137.00
2746.07,169.00
2747.12,170.00
2748.18,116.00
2749.24,127.00
2750.29,85.00
2751.35,63.00
2752.40,148.00
2753.46,127.00
2754.51,106.00
2755.57,137.00
2756.62,106.00
2757.67,148.00
2758.72,116.00
2759.77,106.00
2760.82,84.00
2761.87,64.00
2762.91,63.00
2763.96,106.00
2765.01,106.00
2766.05,116.00
2767.10,117.00
2768.14,127.00
2769.19,148.00
2770.23,106.00
2771.27,105.00
2772.31,106.00
2773.35,106.00
2774.40,85.00
2775.43,127.00
2776.47,116.00
2777.51,84.00
2778.55,85.00
2779.59,105.00
2780.62,127.00
2781.66,159.00
2782.69,138.00
2783.73,85.00
2784.76,84.00
2785.79,96.00
2786.82,127.00
2787.85,127.00
2788.89,117.00
2789.92,85.00
2790.94,95.00
2791.97,106.00
2793.00,95.00
2794.03,106.00
2795.05,95.00
2796.08,116.00
2797.11,117.00
2798.13,85.00
2799.15,63.00
2800.18,96.00
2801.20,96.00
2802.22,106.00
2803.24,127.00
2804.26,127.00
2805.28,127.00
2806.30,64.00
2807.32,74.00
2808.34,149.00
2809.35,117.00
2810.37,127.00
2811.39,170.00
2812.40,159.00
2813.41,64.00
2814.43,84.00
2815.44,106.00
2816.45,85.00
2817.46,106.00
2818.48,95.00
2819.49,158.00
2820.49,170.00
2821.50,148.00
2822.51,85.00
2823.52,85.00
2824.53,106.00
2825.53,95.00
2826.54,75.00
2827.54,127.00
2828.55,159.00
2829.55,116.00
2830.55,105.00
2831.55,64.00
2832.56,74.00
2833.56,106.00
2834.56,127.00
2835.56,74.00
2836.56,64.00
2837.55,106.00
2838.55,106.00
2839.55,85.00
2840.54,43.00
2841.54,84.00
2842.53,95.00
2843.53,85.00
2844.52,95.00
2845.51,116.00
2846.51,138.00
2847.50,138.00
2848.49,117.00
2849.48,105.00
2850.47,106.00
2851.46,96.00
2852.45,106.00
2853.43,106.00
2854.42,116.00
2855.41,43.00
2856.39,21.00
2857.38,64.00
2858.36,106.00
2859.34,117.00
2860.33,116.00
2861.31,106.00
2862.29,95.00
2863.27,53.00
2864.25,42.00
2865.23,42.00
2866.21,63.00
2867.19,85.00
2868.17,74.00
2869.14,138.00
2870.12,74.00
2871.09,53.00
2872.07,42.00
2873.04,74.00
2874.02,95.00
2874.99,42.00
2875.96,64.00
2876.93,85.00
2877.91,84.00
2878.88,127.00
2879.85,116.00
2880.82,127.00
2881.78,106.00
2882.75,85.00
2883.72,84.00
2884.69,127.00
2885.65,95.00
2886.62,84.00
2887.58,85.00
2888.55,127.00
2889.51,149.00
2890.47,64.00
2891.43,84.00
2892.39,85.00
2893.36,116.00
2894.31,95.00
2895.27,74.00
2896.23,127.00
2897.19,84.00
2898.15,63.00
2899.11,74.00
2900.06,127.00
2901.02,127.00
2901.97,138.00
2902.93,137.00
2903.88,106.00
2904.83,127.00
2905.79,117.00
2906.74,74.00
2907.69,43.00
2908.64,85.00
2909.59,74.00
2910.54,63.00
2911.49,84.00
2912.43,85.00
2913.38,84.00
2914.33,84.00
2915.27,43.00
2916.22,53.00
2917.16,127.00
2918.11,106.00
2919.05,64.00
2919.99,63.00
2920.94,42.00
2921.88,85.00
2922.82,106.00
2923.76,85.00
2924.70,137.00
2925.64,117.00
2926.58,95.00
2927.51,85.00
2928.45,85.00
2929.39,95.00
2930.32,74.00
2931.26,64.00
2932.19,96.00
2933.13,117.00
2934.06,74.00
2934.99,64.00
2935.92,85.00
2936.86,127.00
2937.79,137.00
2938.72,96.00
2939.65,53.00
2940.57,75.00
2941.50,64.00
2942.43,74.00
2943.36,64.00
2944.28,106.00
2945.21,53.00
2946.13,63.00
2947.06,21.00
2947.98,31.00
2948.91,84.00
2949.83,74.00
2950.75,64.00
2951.67,74.00
2952.59,84.00
2953.51,85.00
2954.43,127.00
2955.35,53.00
2956.27,63.00
2957.19,43.00
2958.10,21.00
2959.02,32.00
2959.94,53.00
2960.85,75.00
2961.77,117.00
2962.68,85.00
2963.59,42.00
2964.51,95.00
2965.42,96.00
2966.33,106.00
2967.24,85.00
2968.15,95.00
2969.06,74.00
2969.97,43.00
2970.88,63.00
2971.78,96.00
2972.69,137.00
2973.60,117.00
2974.50,84.00
2975.41,85.00
2976.31,95.00
2977.22,75.00
2978.12,85.00
2979.02,84.00
2979.93,63.00
2980.83,63.00
2981.73,53.00
2982.63,42.00
2983.53,95.00
2984.43,42.00
2985.33,64.00
2986.22,75.00
2987.12,106.00
2988.02,64.00
2988.91,53.00
2989.81,63.00
2990.70,63.00
2991.60,74.00
2992.49,85.00
2993.38,84.00
2994.28,74.00
2995.17,22.00
2996.06,95.00
2996.95,85.00
2997.84,53.00
2998.73,43.00
2999.62,0.00
3000.51,21.00
3001.40,22.00
3002.28,32.00
3003.17,85.00
3004.05,64.00
3004.94,74.00
3005.82,127.00
3006.71,106.00
3007.59,85.00
3008.47,53.00
3009.36,84.00
3010.24,63.00
3011.12,53.00
3012.00,21.00
3012.88,42.00
3013.76,53.00
3014.64,32.00
3015.51,63.00
3016.39,96.00
3017.27,42.00
3018.14,84.00
3019.02,84.00
3019.89,32.00
3020.77,85.00
3021.64,42.00
3022.52,43.00
3023.39,85.00
3024.26,85.00
3025.13,63.00
3026.00,31.00
3026.87,63.00
3027.74,31.00
3028.61,0.00
3029.48,42.00
3030.35,64.00
3031.21,42.00
3032.08,85.00
3032.95,21.00
3033.81,-32.00
3034.68,21.00
3035.54,85.00
3036.40,74.00
3037.27,64.00
3038.13,85.00
3038.99,11.00
3039.85,10.00
3040.71,64.00
3041.57,64.00
3042.43,75.00
3043.29,85.00
3044.15,85.00
3045.01,63.00
3045.86,42.00
3046.72,75.00
3047.58,75.00
3048.43,43.00
3049.29,31.00
3050.14,42.00
3050.99,0.00
3051.85,31.00
3052.70,21.00
3053.55,11.00
3054.40,42.00
3055.25,53.00
3056.10,53.00
3056.95,43.00
3057.80,43.00
3058.65,64.00
3059.50,64.00
3060.34,74.00
3061.19,106.00
3062.04,106.00
3062.88,74.00
3063.73,74.00
3064.57,106.00
3065.42,32.00
3066.26,42.00
3067.10,21.00
3067.94,10.00
3068.78,21.00
3069.63,42.00
3070.47,31.00
3071.31,31.00
3072.14,95.00
3072.98,106.00
3073.82,106.00
3074.66,53.00
3075.49,10.00
3076.33,74.00
3077.17,64.00
3078.00,42.00
3078.83,21.00
3079.67,0.00
3080.50,32.00
3081.33,22.00
3082.17,10.00
3083.00,31.00
3083.83,0.00
3084.66,21.00
3085.49,43.00
3086.32,42.00
3087.15,22.00
3087.97,21.00
3088.80,42.00
3089.63,-10.00
3090.46,0.00
3091.28,21.00
3092.11,106.00
3092.93,53.00
3093.75,43.00
3094.58,63.00
3095.40,42.00
3096.22,32.00
3097.05,53.00
3097.87,42.00
3098.69,53.00
3099.51,32.00
3100.33,95.00
3101.15,106.00
3101.96,64.00
3102.78,85.00
3103.60,96.00
3104.42,42.00
3105.23,31.00
3106.05,85.00
3106.86,64.00
3107.68,21.00
3108.49,32.00
3109.30,-21.00
3110.12,10.00
3110.93,21.00
3111.74,43.00
3112.55,42.00
3113.36,21.00
3114.17,63.00
3114.98,74.00
3115.79,42.00
3116.60,0.00
3117.40,21.00
3118.21,32.00
3119.02,31.00
3119.82,43.00
3120.63,43.00
3121.43,63.00
3122.24,106.00
3123.04,63.00
3123.84,53.00
3124.65,21.00
3125.45,32.00
3126.25,21.00
3127.05,-31.00
3127.85,-11.00
3128.65,21.00
3129.45,32.00
3130.25,-10.00
3131.05,-32.00
3131.84,32.00
3132.64,53.00
3133.44,53.00
3134.23,74.00
3135.03,63.00
3135.82,95.00
3136.62,64.00
3137.41,21.00
3138.20,53.00
3139.00,63.00
3139.79,74.00
3140.58,53.00
3141.37,0.00
3142.16,74.00
3142.95,74.00
3143.74,53.00
3144.53,84.00
3145.32,117.00
3146.10,105.00
3146.89,53.00
3147.68,21.00
3148.46,-11.00
3149.25,0.00
3150.03,42.00
3150.82,-21.00
3151.60,-21.00
3152.38,0.00
3153.17,42.00
3153.95,74.00
3154.73,64.00
3155.51,64.00
3156.29,43.00
3157.07,11.00
3157.85,0.00
3158.63,0.00
3159.41,0.00
3160.18,0.00
3160.96,10.00
3161.74,11.00
3162.51,21.00
3163.29,11.00
3164.06,10.00
3164.84,42.00
3165.61,22.00
3166.38,52.00
3167.16,53.00
3167.93,21.00
3168.70,0.00
3169.47,21.00
3170.24,0.00
3171.01,10.00
3171.78,32.00
3172.55,21.00
3173.32,53.00
3174.09,10.00
3174.85,64.00
3175.62,43.00
3176.39,53.00
3177.15,42.00
3177.92,0.00
3178.68,32.00
3179.45,53.00
3180.21,32.00
3180.97,32.00
3181.73,32.00
3182.50,11.00
3183.26,11.00
3184.02,10.00
3184.78,85.00
3185.54,64.00
3186.30,21.00
3187.05,53.00
3187.81,32.00
3188.57,21.00
3189.33,21.00
3190.08,42.00
3190.84,31.00
3191.59,21.00
3192.35,21.00
3193.10,74.00
3193.86,95.00
3194.61,85.00
3195.36,64.00
3196.12,-32.00
3196.87,-21.00
3197.62,21.00
3198.37,53.00
3199.12,21.00
3199.87,63.00
3200.62,21.00
3201.36,-21.00
3202.11,-21.00
3202.86,10.00
3203.61,42.00
3204.35,53.00
3205.10,53.00
3205.84,42.00
3206.59,-11.00
3207.33,-22.00
3208.08,-21.00
3208.82,0.00
3209.56,-10.00
3210.30,0.00
3211.05,0.00
3211.79,42.00
3212.53,75.00
3213.27,84.00
3214.01,32.00
3214.75,0.00
3215.48,21.00
3216.22,42.00
3216.96,0.00
3217.69,11.00
3218.43,32.00
3219.17,22.00
3219.90,43.00
3220.64,0.00
3221.37,10.00
3222.10,42.00
3222.84,32.00
3223.57,0.00
3224.30,32.00
3225.03,32.00
3225.76,0.00
3226.49,53.00
3227.22,42.00
3227.95,53.00
3228.68,43.00
3229.41,85.00
3230.14,53.00
3230.87,11.00
3231.59,21.00
3232.32,-21.00
3233.04,21.00
3233.77,74.00
3234.49,43.00
3235.22,0.00
3235.94,0.00
3236.66,10.00
3237.39,0.00
3238.11,0.00
3238.83,21.00
3239.55,0.00
3240.27,-21.00
3240.99,10.00
3241.71,-11.00
3242.43,0.00
3243.15,43.00
3243.87,74.00
3244.58,64.00
3245.30,32.00
3246.02,-10.00
3246.73,21.00
3247.45,74.00
3248.16,32.00
3248.88,21.00
3249.59,21.00
3250.30,42.00
3251.01,22.00
3251.73,21.00
3252.44,11.00
3253.15,-21.00
3253.86,21.00
3254.57,10.00
3255.28,11.00
3255.99,64.00
3256.70,21.00
3257.41,0.00
3258.11,-42.00
3258.82,-74.00
3259.53,-42.00
3260.23,-11.00
3260.94,21.00
3261.64,22.00
3262.35,63.00
3263.05,21.00
3263.76,21.00
3264.46,11.00
3265.16,42.00
3265.86,32.00
3266.56,-11.00
3267.26,-11.00
3267.97,0.00
3268.67,-22.00
3269.36,0.00
3270.06,11.00
3270.76,0.00
3271.46,-21.00
3272.16,43.00
3272.85,0.00
