RamanShift,Intensity
180.91,566.00
183.74,646.00
186.56,847.00
189.39,1239.00
192.21,1811.00
195.03,2764.00
197.84,4066.00
200.66,5750.00
203.47,7752.00
206.28,9965.00
209.09,12093.00
211.89,14084.00
214.70,15704.00
217.50,16816.00
220.30,17779.00
223.10,18499.00
225.89,18870.00
228.69,19209.00
231.48,19590.00
234.27,19823.00
237.05,19876.00
239.84,19886.00
242.62,19813.00
245.40,19706.00
248.18,19643.00
250.96,19314.00
253.73,18881.00
256.51,18584.00
259.28,18372.00
262.05,18097.00
264.81,17938.00
267.58,17822.00
270.34,17641.00
273.10,17451.00
275.86,17324.00
278.61,17419.00
281.37,17313.00
284.12,17218.00
286.87,17070.00
289.62,17112.00
292.36,17175.00
295.11,17260.00
297.85,17186.00
300.59,17229.00
303.33,17356.00
306.06,17218.00
308.80,17176.00
311.53,17196.00
314.26,17102.00
316.99,16985.00
319.71,17155.00
322.44,17154.00
325.16,16943.00
327.88,16795.00
330.59,16794.00
333.31,16805.00
336.02,16635.00
338.73,16551.00
341.44,16582.00
344.15,16551.00
346.86,16455.00
349.56,16487.00
352.26,16540.00
354.96,16434.00
357.66,16487.00
360.35,16572.00
363.05,16508.00
365.74,16657.00
368.43,16827.00
371.12,16942.00
373.80,16964.00
376.48,16943.00
379.17,16953.00
381.85,17038.00
384.52,16985.00
387.20,17006.00
389.87,16932.00
392.54,16911.00
395.21,16932.00
397.88,16900.00
400.55,16953.00
403.21,16900.00
405.87,16731.00
408.53,16699.00
411.19,16656.00
413.84,16762.00
416.50,16625.00
419.15,16689.00
421.80,16593.00
424.45,16572.00
427.10,16615.00
429.74,16551.00
432.38,16551.00
435.02,16445.00
437.66,16551.00
440.30,16540.00
442.93,16413.00
445.56,16455.00
448.19,16550.00
450.82,16551.00
453.45,16434.00
456.07,16318.00
458.70,16424.00
461.32,16477.00
463.94,16561.00
466.55,16551.00
469.17,16477.00
471.78,16392.00
474.39,16350.00
477.00,16392.00
479.61,16424.00
482.22,16413.00
484.82,16349.00
487.42,16223.00
490.02,16137.00
492.62,16138.00
495.21,16201.00
497.81,16191.00
500.40,16011.00
502.99,15873.00
505.58,15947.00
508.17,15926.00
510.75,15841.00
513.33,15767.00
515.91,15725.00
518.49,15768.00
521.07,15682.00
523.65,15651.00
526.22,15714.00
528.79,15683.00
531.36,15714.00
533.93,15651.00
536.49,15694.00
539.06,15651.00
541.62,15333.00
544.18,15354.00
546.74,15333.00
549.30,15597.00
551.85,15683.00
554.40,15523.00
556.95,15280.00
559.50,15280.00
562.05,15386.00
564.59,15418.00
567.14,15450.00
569.68,15291.00
572.22,15185.00
574.76,15047.00
577.29,15047.00
579.83,15069.00
582.36,15036.00
584.89,14889.00
587.42,14846.00
589.95,14877.00
592.47,14909.00
594.99,14730.00
597.52,14528.00
600.04,14570.00
602.55,14571.00
605.07,14592.00
607.58,14422.00
610.09,14327.00
612.60,14391.00
615.11,14306.00
617.62,14349.00
620.12,14274.00
622.63,14200.00
625.13,14105.00
627.63,13956.00
630.13,14052.00
632.62,13936.00
635.12,13935.00
637.61,14126.00
640.10,13999.00
642.59,13755.00
645.07,13691.00
647.56,13702.00
650.04,13829.00
652.52,13756.00
655.00,13629.00
657.48,13681.00
659.96,13734.00
662.43,13554.00
664.90,13470.00
667.37,13554.00
669.84,13586.00
672.31,13565.00
674.78,13629.00
677.24,13501.00
679.70,13417.00
682.16,13427.00
684.62,13438.00
687.08,13374.00
689.53,13300.00
691.98,13332.00
694.43,13363.00
696.88,13268.00
699.33,13194.00
701.78,13152.00
704.22,13046.00
706.66,13014.00
709.10,12866.00
711.54,12750.00
713.98,12897.00
716.42,12993.00
718.85,13120.00
721.28,13310.00
723.71,13321.00
726.14,13554.00
728.57,13649.00
730.99,13638.00
733.41,13650.00
735.83,13470.00
738.25,13300.00
740.67,13152.00
743.09,12866.00
745.50,12527.00
747.91,12411.00
750.33,12209.00
752.73,12146.00
755.14,12125.00
757.55,11966.00
759.95,11849.00
762.35,11977.00
764.75,11987.00
767.15,12040.00
769.55,12104.00
771.95,11902.00
774.34,11775.00
776.73,11828.00
779.12,11838.00
781.51,11870.00
783.90,11786.00
786.28,11733.00
788.67,11860.00
791.05,11786.00
793.43,11786.00
795.80,11849.00
798.18,11850.00
800.56,11680.00
802.93,11574.00
805.30,11542.00
807.67,11595.00
810.04,11489.00
812.40,11415.00
814.77,11330.00
817.13,11405.00
819.49,11458.00
821.85,11299.00
824.21,11024.00
826.57,11034.00
828.92,11034.00
831.27,11002.00
833.63,11034.00
835.98,11066.00
838.32,11002.00
840.67,10917.00
843.01,10938.00
845.36,10853.00
847.70,10748.00
850.04,10674.00
852.37,10568.00
854.71,10716.00
857.05,10695.00
859.38,10494.00
861.71,10462.00
864.04,10515.00
866.37,10462.00
868.69,10409.00
871.02,10367.00
873.34,10398.00
875.66,10367.00
877.98,10325.00
880.30,10282.00
882.62,10345.00
884.93,10283.00
887.24,10250.00
889.55,10176.00
891.86,10165.00
894.17,10155.00
896.48,10070.00
898.78,10112.00
901.09,10091.00
903.39,10091.00
905.69,10060.00
907.99,10006.00
910.28,10028.00
912.58,9922.00
914.87,9742.00
917.16,9689.00
919.45,9784.00
921.74,9944.00
924.03,9837.00
926.31,9891.00
928.60,9859.00
930.88,9711.00
933.16,9731.00
935.44,9657.00
937.72,9626.00
939.99,9689.00
942.26,9552.00
944.54,9572.00
946.81,9594.00
949.08,9466.00
951.34,9477.00
953.61,9605.00
955.87,9657.00
958.14,9657.00
960.40,9583.00
962.66,9435.00
964.92,9372.00
967.17,9287.00
969.43,9382.00
971.68,9265.00
973.93,9171.00
976.18,9139.00
978.43,9096.00
980.68,9138.00
982.92,9171.00
985.17,9054.00
987.41,8926.00
989.65,8905.00
991.89,8863.00
994.12,8757.00
996.36,8820.00
998.59,8800.00
1000.83,8705.00
1003.06,8556.00
1005.29,8535.00
1007.51,8715.00
1009.74,8842.00
1011.97,8927.00
1014.19,8864.00
1016.41,8799.00
1018.63,8736.00
1020.85,8694.00
1023.07,8651.00
1025.28,8620.00
1027.49,8609.00
1029.71,8673.00
1031.92,8609.00
1034.13,8588.00
1036.33,8546.00
1038.54,8503.00
1040.74,8408.00
1042.95,8429.00
1045.15,8333.00
1047.35,8354.00
1049.55,8461.00
1051.74,8344.00
1053.94,8260.00
1056.13,8333.00
1058.32,8355.00
1060.51,8238.00
1062.70,8207.00
1064.89,8239.00
1067.08,8238.00
1069.26,8080.00
1071.44,8026.00
1073.63,8133.00
1075.81,8079.00
1077.98,8100.00
1080.16,8069.00
1082.34,8038.00
1084.51,7995.00
1086.68,8164.00
1088.85,8143.00
1091.02,7995.00
1093.19,7910.00
1095.35,7889.00
1097.52,7953.00
1099.68,7878.00
1101.84,7815.00
1104.00,7879.00
1106.16,7879.00
1108.32,7878.00
1110.48,7858.00
1112.63,7720.00
1114.78,7687.00
1116.93,7752.00
1119.08,7677.00
1121.23,7645.00
1123.38,7666.00
1125.52,7592.00
1127.67,7603.00
1129.81,7529.00
1131.95,7497.00
1134.09,7603.00
1136.22,7550.00
1138.36,7413.00
1140.50,7401.00
1142.63,7381.00
1144.76,7360.00
1146.89,7327.00
1149.02,7423.00
1151.15,7391.00
1153.27,7285.00
1155.40,7296.00
1157.52,7296.00
1159.64,7232.00
1161.76,7190.00
1163.88,7190.00
1165.99,7232.00
1168.11,7147.00
1170.22,7201.00
1172.34,7221.00
1174.45,7159.00
1176.56,7053.00
1178.66,6978.00
1180.77,6978.00
1182.88,6936.00
1184.98,6958.00
1187.08,7010.00
1189.18,7042.00
1191.28,7105.00
1193.38,7105.00
1195.47,6978.00
1197.57,6894.00
1199.66,6851.00
1201.75,6830.00
1203.85,6767.00
1205.93,6745.00
1208.02,6777.00
1210.11,6692.00
1212.19,6713.00
1214.28,6935.00
1216.36,6936.00
1218.44,6862.00
1220.52,6894.00
1222.59,6830.00
1224.67,6756.00
1226.74,6787.00
1228.82,6873.00
1230.89,6851.00
1232.96,6703.00
1235.03,6671.00
1237.10,6661.00
1239.16,6682.00
1241.23,6777.00
1243.29,6724.00
1245.35,6714.00
1247.41,6724.00
1249.47,6703.00
1251.53,6597.00
1253.58,6523.00
1255.64,6554.00
1257.69,6544.00
1259.74,6544.00
1261.79,6502.00
1263.84,6491.00
1265.89,6534.00
1267.93,6534.00
1269.98,6449.00
1272.02,6438.00
1274.06,6290.00
1276.10,6237.00
1278.14,6322.00
1280.18,6322.00
1282.22,6279.00
1284.25,6321.00
1286.28,6279.00
1288.32,6205.00
1290.35,6025.00
1292.38,6004.00
1294.40,6068.00
1296.43,5961.00
1298.46,5962.00
1300.48,6173.00
1302.50,6174.00
1304.52,6215.00
1306.54,6216.00
1308.56,6089.00
1310.58,6036.00
1312.59,6131.00
1314.60,6110.00
1316.62,6131.00
1318.63,6258.00
1320.64,6385.00
1322.65,6491.00
1324.65,6460.00
1326.66,6428.00
1328.66,6438.00
1330.66,6438.00
1332.67,6470.00
1334.67,6375.00
1336.66,6375.00
1338.66,6343.00
1340.66,6269.00
1342.65,6185.00
1344.65,6004.00
1346.64,5940.00
1348.63,6047.00
1350.62,6025.00
1352.60,5961.00
1354.59,5814.00
1356.57,5718.00
1358.56,5760.00
1360.54,5771.00
1362.52,5887.00
1364.50,5898.00
1366.48,5708.00
1368.46,5687.00
1370.43,5760.00
1372.41,5739.00
1374.38,5591.00
1376.35,5644.00
1378.32,5687.00
1380.29,5581.00
1382.25,5559.00
1384.22,5592.00
1386.18,5570.00
1388.15,5623.00
1390.11,5570.00
1392.07,5517.00
1394.03,5507.00
1395.99,5528.00
1397.94,5612.00
1399.90,5592.00
1401.85,5528.00
1403.80,5475.00
1405.76,5443.00
1407.71,5453.00
1409.65,5474.00
1411.60,5432.00
1413.55,5359.00
1415.49,5326.00
1417.44,5305.00
1419.38,5305.00
1421.32,5231.00
1423.26,5210.00
1425.19,5263.00
1427.13,5210.00
1429.07,5189.00
1431.00,5242.00
1432.93,5295.00
1434.86,5220.00
1436.79,5147.00
1438.72,5072.00
1440.65,5115.00
1442.57,5179.00
1444.50,5221.00
1446.42,5157.00
1448.34,5030.00
1450.26,5030.00
1452.18,4987.00
1454.10,4988.00
1456.02,5019.00
1457.93,4998.00
1459.85,5061.00
1461.76,5030.00
1463.67,4934.00
1465.58,4934.00
1467.49,4935.00
1469.40,4988.00
1471.31,5009.00
1473.21,5051.00
1475.11,5009.00
1477.02,5009.00
1478.92,4988.00
1480.82,4860.00
1482.72,4818.00
1484.61,4840.00
1486.51,4861.00
1488.40,4776.00
1490.30,4712.00
1492.19,4734.00
1494.08,4744.00
1495.97,4733.00
1497.86,4766.00
1499.74,4765.00
1501.63,4733.00
1503.51,4691.00
1505.40,4723.00
1507.28,4755.00
1509.16,4638.00
1511.04,4617.00
1512.92,4712.00
1514.79,4670.00
1516.67,4648.00
1518.54,4670.00
1520.42,4649.00
1522.29,4649.00
1524.16,4627.00
1526.03,4596.00
1527.89,4617.00
1529.76,4606.00
1531.63,4532.00
1533.49,4511.00
1535.35,4436.00
1537.21,4437.00
1539.07,4606.00
1540.93,4595.00
1542.79,4522.00
1544.65,4427.00
1546.50,4394.00
1548.36,4352.00
1550.21,4405.00
1552.06,4352.00
1553.91,4331.00
1555.76,4331.00
1557.61,4352.00
1559.45,4384.00
1561.30,4373.00
1563.14,4363.00
1564.98,4289.00
1566.82,4204.00
1568.67,4246.00
1570.50,4267.00
1572.34,4267.00
1574.18,4289.00
1576.01,4246.00
1577.85,4288.00
1579.68,4225.00
1581.51,4214.00
1583.34,4235.00
1585.17,4141.00
1587.00,4077.00
1588.82,4161.00
1590.65,4183.00
1592.47,4076.00
1594.30,4077.00
1596.12,4129.00
1597.94,4045.00
1599.76,4024.00
1601.57,4055.00
1603.39,4098.00
1605.21,4098.00
1607.02,4055.00
1608.83,3992.00
1610.64,3971.00
1612.45,3992.00
1614.26,3939.00
1616.07,3897.00
1617.88,3981.00
1619.68,3971.00
1621.49,3918.00
1623.29,3876.00
1625.09,3876.00
1626.89,3929.00
1628.69,3865.00
1630.49,3918.00
1632.29,3866.00
1634.08,3780.00
1635.88,3759.00
1637.67,3685.00
1639.46,3632.00
1641.25,3695.00
1643.04,3748.00
1644.83,3770.00
1646.62,3812.00
1648.41,3844.00
1650.19,3823.00
1651.97,3706.00
1653.76,3717.00
1655.54,3674.00
1657.32,3600.00
1659.10,3643.00
1660.88,3653.00
1662.65,3760.00
1664.43,3675.00
1666.20,3611.00
1667.97,3548.00
1669.75,3537.00
1671.52,3600.00
1673.29,3558.00
1675.05,3483.00
1676.82,3558.00
1678.59,3632.00
1680.35,3547.00
1682.11,3505.00
1683.88,3526.00
1685.64,3526.00
1687.40,3568.00
1689.16,3547.00
1690.91,3431.00
1692.67,3399.00
1694.42,3453.00
1696.18,3389.00
1697.93,3367.00
1699.68,3399.00
1701.43,3325.00
1703.18,3293.00
1704.93,3399.00
1706.68,3442.00
1708.42,3294.00
1710.17,3251.00
1711.91,3251.00
1713.65,3283.00
1715.39,3346.00
1717.13,3336.00
1718.87,3240.00
1720.61,3240.00
1722.35,3272.00
1724.08,3230.00
1725.81,3188.00
1727.55,3208.00
1729.28,3241.00
1731.01,3177.00
1732.74,3177.00
1734.47,3124.00
1736.19,3071.00
1737.92,3123.00
1739.64,3188.00
1741.37,3145.00
1743.09,3081.00
1744.81,3040.00
1746.53,3060.00
1748.25,3071.00
1749.97,3071.00
1751.68,3060.00
1753.40,3050.00
1755.11,2997.00
1756.83,2954.00
1758.54,3018.00
1760.25,3050.00
1761.96,3071.00
1763.67,3050.00
1765.38,2976.00
1767.08,2954.00
1768.79,2891.00
1770.49,2785.00
1772.19,2848.00
1773.90,2901.00
1775.60,2870.00
1777.30,2848.00
1778.99,2890.00
1780.69,2881.00
1782.39,2891.00
1784.08,2923.00
1785.78,2881.00
1787.47,2923.00
1789.16,2944.00
1790.85,2880.00
1792.54,2891.00
1794.23,2870.00
1795.91,2869.00
1797.60,2859.00
1799.28,2838.00
1800.97,2838.00
1802.65,2732.00
1804.33,2711.00
1806.01,2722.00
1807.69,2711.00
1809.37,2721.00
1811.05,2743.00
1812.72,2732.00
1814.40,2754.00
1816.07,2753.00
1817.74,2743.00
1819.41,2754.00
1821.08,2775.00
1822.75,2785.00
1824.42,2701.00
1826.09,2627.00
1827.75,2690.00
1829.42,2721.00
1831.08,2711.00
1832.74,2732.00
1834.40,2689.00
1836.06,2626.00
1837.72,2648.00
1839.38,2679.00
1841.04,2722.00
1842.69,2742.00
1844.35,2669.00
1846.00,2700.00
1847.65,2689.00
1849.30,2689.00
1850.95,2679.00
1852.60,2626.00
1854.25,2615.00
1855.90,2583.00
1857.54,2531.00
1859.19,2552.00
1860.83,2562.00
1862.47,2573.00
1864.12,2499.00
1865.76,2530.00
1867.40,2520.00
1869.03,2531.00
1870.67,2520.00
1872.31,2425.00
1873.94,2467.00
1875.57,2467.00
1877.21,2404.00
1878.84,2383.00
1880.47,2436.00
1882.10,2404.00
1883.73,2372.00
1885.35,2351.00
1886.98,2319.00
1888.61,2394.00
1890.23,2414.00
1891.85,2457.00
1893.47,2393.00
1895.09,2383.00
1896.71,2404.00
1898.33,2404.00
1899.95,2362.00
1901.57,2309.00
1903.18,2372.00
1904.80,2350.00
1906.41,2319.00
1908.02,2351.00
1909.63,2351.00
1911.24,2287.00
1912.85,2287.00
1914.46,2298.00
1916.07,2298.00
1917.67,2245.00
1919.28,2160.00
1920.88,2160.00
1922.48,2171.00
1924.08,2235.00
1925.68,2298.00
1927.28,2235.00
1928.88,2234.00
1930.48,2181.00
1932.07,2181.00
1933.67,2160.00
1935.26,2202.00
1936.86,2192.00
1938.45,2150.00
1940.04,2129.00
1941.63,2139.00
1943.22,2160.00
1944.80,2118.00
1946.39,2128.00
1947.98,2129.00
1949.56,2118.00
1951.14,2139.00
1952.73,2065.00
1954.31,2023.00
1955.89,2086.00
1957.47,2023.00
1959.05,1969.00
1960.62,1969.00
1962.20,2054.00
1963.77,2097.00
1965.35,2086.00
1966.92,2118.00
1968.49,2086.00
1970.06,2043.00
1971.63,1991.00
1973.20,2001.00
1974.77,2044.00
1976.34,2107.00
1977.90,2118.00
1979.47,2075.00
1981.03,1969.00
1982.59,1927.00
1984.15,2043.00
1985.71,2075.00
1987.27,2012.00
1988.83,1991.00
1990.39,2034.00
1991.94,1970.00
1993.50,2001.00
1995.05,1948.00
1996.61,1949.00
1998.16,1927.00
1999.71,1969.00
2001.26,1991.00
2002.81,1949.00
2004.36,1948.00
2005.91,1917.00
2007.45,1906.00
2009.00,2002.00
2010.54,1991.00
2012.08,1980.00
2013.62,1927.00
2015.17,1959.00
2016.71,1991.00
2018.24,1907.00
2019.78,1917.00
2021.32,1906.00
2022.85,1885.00
2024.39,1874.00
2025.92,1810.00
2027.46,1832.00
2028.99,1800.00
2030.52,1757.00
2032.05,1800.00
2033.58,1779.00
2035.10,1822.00
2036.63,1779.00
2038.16,1779.00
2039.68,1779.00
2041.21,1790.00
2042.73,1737.00
2044.25,1779.00
2045.77,1821.00
2047.29,1800.00
2048.81,1800.00
2050.33,1801.00
2051.84,1842.00
2053.36,1885.00
2054.87,1853.00
2056.39,1769.00
2057.90,1779.00
2059.41,1736.00
2060.92,1747.00
2062.43,1757.00
2063.94,1726.00
2065.45,1716.00
2066.95,1716.00
2068.46,1737.00
2069.96,1726.00
2071.47,1737.00
2072.97,1695.00
2074.47,1673.00
2075.97,1684.00
2077.47,1588.00
2078.97,1631.00
2080.47,1641.00
2081.96,1673.00
2083.46,1642.00
2084.95,1630.00
2086.45,1610.00
2087.94,1577.00
2089.43,1588.00
2090.92,1557.00
2092.41,1557.00
2093.90,1483.00
2095.39,1525.00
2096.88,1578.00
2098.36,1588.00
2099.85,1557.00
2101.33,1536.00
2102.81,1567.00
2104.30,1567.00
2105.78,1503.00
2107.26,1504.00
2108.74,1514.00
2110.21,1535.00
2111.69,1525.00
2113.17,1578.00
2114.64,1525.00
2116.12,1483.00
2117.59,1525.00
2119.06,1546.00
2120.53,1588.00
2122.00,1546.00
2123.47,1461.00
2124.94,1461.00
2126.41,1472.00
2127.87,1493.00
2129.34,1472.00
2130.80,1503.00
2132.27,1482.00
2133.73,1471.00
2135.19,1503.00
2136.65,1472.00
2138.11,1419.00
2139.57,1387.00
2141.03,1440.00
2142.48,1440.00
2143.94,1451.00
2145.39,1483.00
2146.85,1398.00
2148.30,1398.00
2149.75,1408.00
2151.20,1387.00
2152.65,1334.00
2154.10,1313.00
2155.55,1398.00
2157.00,1419.00
2158.44,1419.00
2159.89,1408.00
2161.33,1334.00
2162.78,1324.00
2164.22,1377.00
2165.66,1387.00
2167.10,1398.00
2168.54,1377.00
2169.98,1313.00
2171.42,1313.00
2172.85,1292.00
2174.29,1313.00
2175.72,1334.00
2177.16,1302.00
2178.59,1281.00
2180.02,1281.00
2181.45,1377.00
2182.88,1356.00
2184.31,1302.00
2185.74,1291.00
2187.17,1313.00
2188.59,1335.00
2190.02,1323.00
2191.44,1313.00
2192.87,1281.00
2194.29,1249.00
2195.71,1218.00
2197.13,1249.00
2198.55,1323.00
2199.97,1334.00
2201.39,1345.00
2202.81,1228.00
2204.22,1196.00
2205.64,1260.00
2207.05,1292.00
2208.46,1270.00
2209.88,1207.00
2211.29,1239.00
2212.70,1281.00
2214.11,1229.00
2215.52,1186.00
2216.92,1229.00
2218.33,1186.00
2219.74,1207.00
2221.14,1217.00
2222.54,1208.00
2223.95,1175.00
2225.35,1197.00
2226.75,1196.00
2228.15,1207.00
2229.55,1207.00
2230.95,1144.00
2232.35,1175.00
2233.74,1154.00
2235.14,1112.00
2236.53,1144.00
2237.93,1123.00
2239.32,1123.00
2240.71,1144.00
2242.10,1165.00
2243.49,1176.00
2244.88,1164.00
2246.27,1154.00
2247.66,1122.00
2249.04,1112.00
2250.43,1091.00
2251.81,1080.00
2253.20,1122.00
2254.58,1143.00
2255.96,1122.00
2257.34,1080.00
2258.72,1102.00
2260.10,1101.00
2261.48,1080.00
2262.86,1123.00
2264.23,1133.00
2265.61,1154.00
2266.98,1154.00
2268.36,1080.00
2269.73,1091.00
2271.10,1080.00
2272.47,1091.00
2273.84,1091.00
2275.21,1080.00
2276.58,1091.00
2277.95,1101.00
2279.31,1091.00
2280.68,1059.00
2282.05,1091.00
2283.41,1059.00
2284.77,1016.00
2286.13,963.00
2287.50,974.00
2288.86,996.00
2290.22,953.00
2291.57,1006.00
2292.93,1027.00
2294.29,1017.00
2295.64,1016.00
2297.00,1006.00
2298.35,1006.00
2299.71,1027.00
2301.06,1037.00
2302.41,1059.00
2303.76,1016.00
2305.11,995.00
2306.46,953.00
2307.81,974.00
2309.15,943.00
2310.50,901.00
2311.84,931.00
2313.19,974.00
2314.53,931.00
2315.87,889.00
2317.22,921.00
2318.56,943.00
2319.90,964.00
2321.24,953.00
2322.57,911.00
2323.91,900.00
2325.25,889.00
2326.58,943.00
2327.92,953.00
2329.25,942.00
2330.58,911.00
2331.91,974.00
2333.25,953.00
2334.58,932.00
2335.90,942.00
2337.23,921.00
2338.56,911.00
2339.89,932.00
2341.21,911.00
2342.54,889.00
2343.86,921.00
2345.19,932.00
2346.51,911.00
2347.83,889.00
2349.15,921.00
2350.47,922.00
2351.79,900.00
2353.11,847.00
2354.42,848.00
2355.74,900.00
2357.06,868.00
2358.37,837.00
2359.68,857.00
2361.00,857.00
2362.31,848.00
2363.62,889.00
2364.93,847.00
2366.24,847.00
2367.55,826.00
2368.86,848.00
2370.16,763.00
2371.47,783.00
2372.77,879.00
2374.08,857.00
2375.38,848.00
2376.68,794.00
2377.98,762.00
2379.29,794.00
2380.59,815.00
2381.88,794.00
2383.18,762.00
2384.48,773.00
2385.78,784.00
2387.07,762.00
2388.37,805.00
2389.66,816.00
2390.95,815.00
2392.25,826.00
2393.54,784.00
2394.83,720.00
2396.12,720.00
2397.41,742.00
2398.70,762.00
2399.98,794.00
2401.27,805.00
2402.55,805.00
2403.84,752.00
2405.12,710.00
2406.41,720.00
2407.69,783.00
2408.97,741.00
2410.25,762.00
2411.53,773.00
2412.81,731.00
2414.09,762.00
2415.36,710.00
2416.64,752.00
2417.91,752.00
2419.19,709.00
2420.46,710.00
2421.74,730.00
2423.01,688.00
2424.28,709.00
2425.55,730.00
2426.82,741.00
2428.09,741.00
2429.36,741.00
2430.62,730.00
2431.89,688.00
2433.15,699.00
2434.42,678.00
2435.68,678.00
2436.94,720.00
2438.21,699.00
2439.47,709.00
2440.73,709.00
2441.99,668.00
2443.25,688.00
2444.51,657.00
2445.76,625.00
2447.02,699.00
2448.27,710.00
2449.53,699.00
2450.78,689.00
2452.03,741.00
2453.29,698.00
2454.54,699.00
2455.79,688.00
2457.04,709.00
2458.29,677.00
2459.54,656.00
2460.78,657.00
2462.03,635.00
2463.27,656.00
2464.52,657.00
2465.76,615.00
2467.01,614.00
2468.25,657.00
2469.49,646.00
2470.73,604.00
2471.97,603.00
2473.21,635.00
2474.45,646.00
2475.69,657.00
2476.92,614.00
2478.16,572.00
2479.39,572.00
2480.63,529.00
2481.86,550.00
2483.09,562.00
2484.32,551.00
2485.56,614.00
2486.79,593.00
2488.02,593.00
2489.24,677.00
2490.47,667.00
2491.70,625.00
2492.92,604.00
2494.15,604.00
2495.37,583.00
2496.60,572.00
2497.82,562.00
2499.04,615.00
2500.26,625.00
2501.48,604.00
2502.70,614.00
2503.92,582.00
2505.14,572.00
2506.36,583.00
2507.58,593.00
2508.79,572.00
2510.01,604.00
2511.22,582.00
2512.43,593.00
2513.64,551.00
2514.86,583.00
2516.07,540.00
2517.28,572.00
2518.49,582.00
2519.70,498.00
2520.90,519.00
2522.11,572.00
2523.32,530.00
2524.52,519.00
2525.73,562.00
2526.93,562.00
2528.13,551.00
2529.33,540.00
2530.54,487.00
2531.74,519.00
2532.94,519.00
2534.14,530.00
2535.33,593.00
2536.53,540.00
2537.73,583.00
2538.92,540.00
2540.12,550.00
2541.31,550.00
2542.51,508.00
2543.70,519.00
2544.89,530.00
2546.08,593.00
2547.27,540.00
2548.46,488.00
2549.65,498.00
2550.84,540.00
2552.03,498.00
2553.21,509.00
2554.40,540.00
2555.58,572.00
2556.77,561.00
2557.95,561.00
2559.13,519.00
2560.31,487.00
2561.50,497.00
2562.68,455.00
2563.85,508.00
2565.03,550.00
2566.21,498.00
2567.39,477.00
2568.56,477.00
2569.74,508.00
2570.91,508.00
2572.09,456.00
2573.26,477.00
2574.43,529.00
2575.61,508.00
2576.78,456.00
2577.95,466.00
2579.12,498.00
2580.29,466.00
2581.45,530.00
2582.62,487.00
2583.79,477.00
2584.95,465.00
2586.12,508.00
2587.28,498.00
2588.44,466.00
2589.61,465.00
2590.77,508.00
2591.93,487.00
2593.09,477.00
2594.25,455.00
2595.41,455.00
2596.56,423.00
2597.72,412.00
2598.88,413.00
2600.03,413.00
2601.19,445.00
2602.34,488.00
2603.50,487.00
2604.65,444.00
2605.80,477.00
2606.95,434.00
2608.10,445.00
2609.25,456.00
2610.40,424.00
2611.55,435.00
2612.70,434.00
2613.84,402.00
2614.99,382.00
2616.13,402.00
2617.28,392.00
2618.42,371.00
2619.56,424.00
2620.71,382.00
2621.85,402.00
2622.99,381.00
2624.13,392.00
2625.27,413.00
2626.40,402.00
2627.54,434.00
2628.68,402.00
2629.81,413.00
2630.95,413.00
2632.08,423.00
2633.22,424.00
2634.35,392.00
2635.48,402.00
2636.61,392.00
2637.74,402.00
2638.87,424.00
2640.00,424.00
2641.13,382.00
2642.26,402.00
2643.39,381.00
2644.51,413.00
2645.64,466.00
2646.76,423.00
2647.89,381.00
2649.01,424.00
2650.13,402.00
2651.25,392.00
2652.38,402.00
2653.50,349.00
2654.62,360.00
2655.73,349.00
2656.85,382.00
2657.97,424.00
2659.09,360.00
2660.20,349.00
2661.32,360.00
2662.43,339.00
2663.55,360.00
2664.66,349.00
2665.77,382.00
2666.88,381.00
2667.99,339.00
2669.10,338.00
2670.21,360.00
2671.32,349.00
2672.43,370.00
2673.54,318.00
2674.64,350.00
2675.75,360.00
2676.85,360.00
2677.96,371.00
2679.06,371.00
2680.16,381.00
2681.26,349.00
2682.37,307.00
2683.47,318.00
2684.57,339.00
2685.66,317.00
2686.76,296.00
2687.86,318.00
2688.96,360.00
2690.05,381.00
2691.15,391.00
2692.24,370.00
2693.34,339.00
2694.43,350.00
2695.52,360.00
2696.62,370.00
2697.71,339.00
2698.80,318.00
2699.89,371.00
2700.98,318.00
2702.06,286.00
2703.15,297.00
2704.24,307.00
2705.32,328.00
2706.41,339.00
2707.49,296.00
2708.58,339.00
2709.66,360.00
2710.74,317.00
2711.83,307.00
2712.91,243.00
2713.99,222.00
2715.07,338.00
2716.15,360.00
2717.22,339.00
2718.30,339.00
2719.38,350.00
2720.45,297.00
2721.53,275.00
2722.60,265.00
2723.68,265.00
2724.75,318.00
2725.82,318.00
2726.89,265.00
2727.97,254.00
2729.04,318.00
2730.11,296.00
2731.17,222.00
2732.24,254.00
2733.31,254.00
2734.38,297.00
2735.44,318.00
2736.51,296.00
2737.57,318.00
2738.64,360.00
2739.70,339.00
2740.76,318.00
2741.82,254.00
2742.89,222.00
2743.95,254.00
2745.01,244.00
2746.07,275.00
2747.12,297.00
2748.18,317.00
2749.24,328.00
2750.29,339.00
2751.35,350.00
2752.40,392.00
2753.46,339.00
2754.51,296.00
2755.57,307.00
2756.62,254.00
2757.67,254.00
2758.72,233.00
2759.77,222.00
2760.82,275.00
2761.87,275.00
2762.91,276.00
2763.96,286.00
2765.01,286.00
2766.05,296.00
2767.10,297.00
2768.14,212.00
2769.19,233.00
2770.23,233.00
2771.27,275.00
2772.31,307.00
2773.35,307.00
2774.40,296.00
2775.43,265.00
2776.47,307.00
2777.51,286.00
2778.55,254.00
2779.59,254.00
2780.62,244.00
2781.66,202.00
2782.69,190.00
2783.73,212.00
2784.76,243.00
2785.79,307.00
2786.82,286.00
2787.85,286.00
2788.89,243.00
2789.92,243.00
2790.94,190.00
2791.97,190.00
2793.00,276.00
2794.03,233.00
2795.05,212.00
2796.08,233.00
2797.11,233.00
2798.13,255.00
2799.15,244.00
2800.18,243.00
2801.20,222.00
2802.22,222.00
2803.24,201.00
2804.26,212.00
2805.28,265.00
2806.30,233.00
2807.32,190.00
2808.34,180.00
2809.35,169.00
2810.37,191.00
2811.39,212.00
2812.40,254.00
2813.41,212.00
2814.43,191.00
2815.44,212.00
2816.45,212.00
2817.46,244.00
2818.48,233.00
2819.49,211.00
2820.49,212.00
2821.50,170.00
2822.51,222.00
2823.52,254.00
2824.53,223.00
2825.53,212.00
2826.54,212.00
2827.54,211.00
2828.55,201.00
2829.55,211.00
2830.55,222.00
2831.55,243.00
2832.56,243.00
2833.56,212.00
2834.56,202.00
2835.56,211.00
2836.56,212.00
2837.55,190.00
2838.55,201.00
2839.55,170.00
2840.54,191.00
2841.54,233.00
2842.53,170.00
2843.53,211.00
2844.52,243.00
2845.51,201.00
2846.51,212.00
2847.50,254.00
2848.49,244.00
2849.48,212.00
2850.47,233.00
2851.46,191.00
2852.45,233.00
2853.43,233.00
2854.42,180.00
2855.41,170.00
2856.39,212.00
2857.38,223.00
2858.36,222.00
2859.34,254.00
2860.33,243.00
2861.31,233.00
2862.29,243.00
2863.27,233.00
2864.25,254.00
2865.23,201.00
2866.21,212.00
2867.19,243.00
2868.17,201.00
2869.14,191.00
2870.12,201.00
2871.09,222.00
2872.07,148.00
2873.04,170.00
2874.02,201.00
2874.99,180.00
2875.96,159.00
2876.93,191.00
2877.91,232.00
2878.88,190.00
2879.85,159.00
2880.82,190.00
2881.78,180.00
2882.75,159.00
2883.72,190.00
2884.69,180.00
2885.65,202.00
2886.62,233.00
2887.58,202.00
2888.55,148.00
2889.51,148.00
2890.47,212.00
2891.43,201.00
2892.39,191.00
2893.36,232.00
2894.31,201.00
2895.27,211.00
2896.23,222.00
2897.19,180.00
2898.15,169.00
2899.11,222.00
2900.06,201.00
2901.02,212.00
2901.97,212.00
2902.93,169.00
2903.88,148.00
2904.83,170.00
2905.79,169.00
2906.74,159.00
2907.69,159.00
2908.64,170.00
2909.59,201.00
2910.54,232.00
2911.49,191.00
2912.43,211.00
2913.38,201.00
2914.33,212.00
2915.27,191.00
2916.22,149.00
2917.16,148.00
2918.11,148.00
2919.05,149.00
2919.99,180.00
2920.94,254.00
2921.88,159.00
2922.82,105.00
2923.76,148.00
2924.70,169.00
2925.64,170.00
2926.58,202.00
2927.51,255.00
2928.45,191.00
2929.39,169.00
2930.32,180.00
2931.26,149.00
2932.19,117.00
2933.13,159.00
2934.06,180.00
2934.99,233.00
2935.92,191.00
2936.86,137.00
2937.79,233.00
2938.72,202.00
2939.65,148.00
2940.57,159.00
2941.50,170.00
2942.43,201.00
2943.36,201.00
2944.28,159.00
2945.21,190.00
2946.13,201.00
2947.06,201.00
2947.98,244.00
2948.91,190.00
2949.83,138.00
2950.75,201.00
2951.67,191.00
2952.59,158.00
2953.51,170.00
2954.43,170.00
2955.35,191.00
2956.27,169.00
2957.19,106.00
2958.10,95.00
2959.02,138.00
2959.94,159.00
2960.85,180.00
2961.77,127.00
2962.68,117.00
2963.59,169.00
2964.51,180.00
2965.42,169.00
2966.33,149.00
2967.24,191.00
2968.15,191.00
2969.06,127.00
2969.97,106.00
2970.88,148.00
2971.78,137.00
2972.69,95.00
2973.60,170.00
2974.50,148.00
2975.41,127.00
2976.31,159.00
2977.22,158.00
2978.12,127.00
2979.02,116.00
2979.93,137.00
2980.83,106.00
2981.73,127.00
2982.63,116.00
2983.53,148.00
2984.43,148.00
2985.33,106.00
2986.22,106.00
2987.12,137.00
2988.02,201.00
2988.91,201.00
2989.81,127.00
2990.70,191.00
2991.60,159.00
2992.49,95.00
2993.38,85.00
2994.28,116.00
2995.17,127.00
2996.06,159.00
2996.95,159.00
2997.84,138.00
2998.73,117.00
2999.62,106.00
3000.51,106.00
3001.40,106.00
3002.28,74.00
3003.17,75.00
3004.05,138.00
3004.94,127.00
3005.82,84.00
3006.71,96.00
3007.59,170.00
3008.47,127.00
3009.36,138.00
3010.24,85.00
3011.12,137.00
3012.00,148.00
3012.88,85.00
3013.76,85.00
3014.64,63.00
3015.51,106.00
3016.39,106.00
3017.27,106.00
3018.14,116.00
3019.02,138.00
3019.89,127.00
3020.77,127.00
3021.64,148.00
3022.52,84.00
3023.39,95.00
3024.26,84.00
3025.13,85.00
3026.00,85.00
3026.87,106.00
3027.74,138.00
3028.61,127.00
3029.48,127.00
3030.35,117.00
3031.21,117.00
3032.08,117.00
3032.95,52.00
3033.81,32.00
3034.68,43.00
3035.54,95.00
3036.40,84.00
3037.27,85.00
3038.13,85.00
3038.99,137.00
3039.85,148.00
3040.71,148.00
3041.57,159.00
3042.43,117.00
3043.29,138.00
3044.15,127.00
3045.01,85.00
3045.86,64.00
3046.72,96.00
3047.58,75.00
3048.43,96.00
3049.29,106.00
3050.14,127.00
3050.99,127.00
3051.85,106.00
3052.70,74.00
3053.55,53.00
3054.40,32.00
3055.25,74.00
3056.10,106.00
3056.95,148.00
3057.80,106.00
3058.65,64.00
3059.50,85.00
3060.34,106.00
3061.19,106.00
3062.04,74.00
3062.88,84.00
3063.73,127.00
3064.57,148.00
3065.42,127.00
3066.26,74.00
3067.10,95.00
3067.94,149.00
3068.78,106.00
3069.63,85.00
3070.47,63.00
3071.31,84.00
3072.14,127.00
3072.98,84.00
3073.82,74.00
3074.66,85.00
3075.49,106.00
3076.33,85.00
3077.17,84.00
3078.00,85.00
3078.83,52.00
3079.67,64.00
3080.50,84.00
3081.33,64.00
3082.17,43.00
3083.00,84.00
3083.83,95.00
3084.66,74.00
3085.49,84.00
3086.32,106.00
3087.15,43.00
3087.97,63.00
3088.80,74.00
3089.63,84.00
3090.46,85.00
3091.28,96.00
3092.11,63.00
3092.93,127.00
3093.75,64.00
3094.58,63.00
3095.40,84.00
3096.22,95.00
3097.05,64.00
3097.87,31.00
3098.69,43.00
3099.51,53.00
3100.33,63.00
3101.15,42.00
3101.96,84.00
3102.78,74.00
3103.60,96.00
3104.42,85.00
3105.23,42.00
3106.05,11.00
3106.86,42.00
3107.68,64.00
3108.49,95.00
3109.30,85.00
3110.12,53.00
3110.93,75.00
3111.74,42.00
3112.55,63.00
3113.36,74.00
3114.17,53.00
3114.98,0.00
3115.79,21.00
3116.60,32.00
3117.40,43.00
3118.21,74.00
3119.02,42.00
3119.82,106.00
3120.63,53.00
3121.43,11.00
3122.24,43.00
3123.04,64.00
3123.84,117.00
3124.65,74.00
3125.45,127.00
3126.25,117.00
3127.05,53.00
3127.85,53.00
3128.65,0.00
3129.45,74.00
3130.25,85.00
3131.05,0.00
3131.84,22.00
3132.64,85.00
3133.44,85.00
3134.23,63.00
3135.03,64.00
3135.82,75.00
3136.62,32.00
3137.41,21.00
3138.20,52.00
3139.00,63.00
3139.79,85.00
3140.58,32.00
3141.37,63.00
3142.16,84.00
3142.95,74.00
3143.74,21.00
3144.53,21.00
3145.32,42.00
3146.10,63.00
3146.89,22.00
3147.68,0.00
3148.46,42.00
3149.25,53.00
3150.03,22.00
3150.82,106.00
3151.60,53.00
3152.38,63.00
3153.17,63.00
3153.95,42.00
3154.73,85.00
3155.51,85.00
3156.29,85.00
3157.07,106.00
3157.85,64.00
3158.63,10.00
3159.41,32.00
3160.18,75.00
3160.96,84.00
3161.74,85.00
3162.51,43.00
3163.29,53.00
3164.06,43.00
3164.84,32.00
3165.61,43.00
3166.38,21.00
3167.16,106.00
3167.93,85.00
3168.70,105.00
3169.47,106.00
3170.24,64.00
3171.01,43.00
3171.78,43.00
3172.55,75.00
3173.32,42.00
3174.09,32.00
3174.85,64.00
3175.62,84.00
3176.39,64.00
3177.15,85.00
3177.92,64.00
3178.68,43.00
3179.45,74.00
3180.21,53.00
3180.97,53.00
3181.73,63.00
3182.50,53.00
3183.26,74.00
3184.02,63.00
3184.78,74.00
3185.54,53.00
3186.30,63.00
3187.05,106.00
3187.81,63.00
3188.57,74.00
3189.33,127.00
3190.08,106.00
3190.84,32.00
3191.59,31.00
3192.35,85.00
3193.10,74.00
3193.86,31.00
3194.61,43.00
3195.36,74.00
3196.12,84.00
3196.87,63.00
3197.62,63.00
3198.37,106.00
3199.12,106.00
3199.87,53.00
3200.62,21.00
3201.36,42.00
3202.11,32.00
3202.86,-10.00
3203.61,11.00
3204.35,74.00
3205.10,74.00
3205.84,63.00
3206.59,64.00
3207.33,85.00
3208.08,117.00
3208.82,106.00
3209.56,64.00
3210.30,42.00
3211.05,96.00
3211.79,63.00
3212.53,64.00
3213.27,22.00
3214.01,63.00
3214.75,84.00
3215.48,85.00
3216.22,74.00
3216.96,63.00
3217.69,52.00
3218.43,53.00
3219.17,74.00
3219.90,43.00
3220.64,32.00
3221.37,53.00
3222.10,53.00
3222.84,32.00
3223.57,10.00
3224.30,21.00
3225.03,32.00
3225.76,32.00
3226.49,42.00
3227.22,22.00
3227.95,0.00
3228.68,22.00
3229.41,53.00
3230.14,42.00
3230.87,43.00
3231.59,-10.00
3232.32,11.00
3233.04,32.00
3233.77,11.00
3234.49,21.00
3235.22,32.00
3235.94,0.00
3236.66,0.00
3237.39,-11.00
3238.11,10.00
3238.83,74.00
3239.55,43.00
3240.27,0.00
3240.99,11.00
3241.71,21.00
3242.43,-11.00
3243.15,63.00
3243.87,42.00
3244.58,11.00
3245.30,53.00
3246.02,21.00
3246.73,42.00
3247.45,53.00
3248.16,53.00
3248.88,84.00
3249.59,22.00
3250.30,21.00
3251.01,21.00
3251.73,42.00
3252.44,64.00
3253.15,42.00
3253.86,42.00
3254.57,43.00
3255.28,53.00
3255.99,63.00
3256.70,32.00
3257.41,53.00
3258.11,0.00
3258.82,-10.00
3259.53,-11.00
3260.23,11.00
3260.94,63.00
3261.64,43.00
3262.35,32.00
3263.05,22.00
3263.76,32.00
3264.46,42.00
3265.16,64.00
3265.86,106.00
3266.56,85.00
3267.26,42.00
3267.97,53.00
3268.67,32.00
3269.36,21.00
3270.06,43.00
3270.76,21.00
3271.46,52.00
3272.16,85.00
3272.85,0.00
