RamanShift,Intensity
180.91,196.00
183.74,296.00
186.56,392.00
189.39,561.00
192.21,762.00
195.03,984.00
197.84,1281.00
200.66,1663.00
203.47,2034.00
206.28,2382.00
209.09,2700.00
211.89,3008.00
214.70,3303.00
217.50,3547.00
220.30,3685.00
223.10,3706.00
225.89,3780.00
228.69,3855.00
231.48,3950.00
234.27,3950.00
237.05,3939.00
239.84,3971.00
242.62,3939.00
245.40,3950.00
248.18,3897.00
250.96,3759.00
253.73,3706.00
256.51,3738.00
259.28,3674.00
262.05,3664.00
264.81,3632.00
267.58,3558.00
270.34,3483.00
273.10,3494.00
275.86,3558.00
278.61,3547.00
281.37,3516.00
284.12,3473.00
286.87,3505.00
289.62,3526.00
292.36,3484.00
295.11,3579.00
297.85,3484.00
300.59,3442.00
303.33,3590.00
306.06,3590.00
308.80,3484.00
311.53,3483.00
314.26,3505.00
316.99,3579.00
319.71,3611.00
322.44,3600.00
325.16,3526.00
327.88,3484.00
330.59,3473.00
333.31,3431.00
336.02,3420.00
338.73,3378.00
341.44,3378.00
344.15,3463.00
346.86,3484.00
349.56,3452.00
352.26,3399.00
354.96,3389.00
357.66,3367.00
360.35,3315.00
363.05,3378.00
365.74,3463.00
368.43,3484.00
371.12,3463.00
373.80,3494.00
376.48,3621.00
379.17,3674.00
381.85,3675.00
384.52,3706.00
387.20,3749.00
389.87,3664.00
392.54,3632.00
395.21,3674.00
397.88,3706.00
400.55,3770.00
403.21,3738.00
405.87,3653.00
408.53,3600.00
411.19,3569.00
413.84,3633.00
416.50,3675.00
419.15,3632.00
421.80,3516.00
424.45,3484.00
427.10,3558.00
429.74,3653.00
432.38,3632.00
435.02,3696.00
437.66,3601.00
440.30,3589.00
442.93,3611.00
445.56,3579.00
448.19,3590.00
450.82,3601.00
453.45,3569.00
456.07,3558.00
458.70,3579.00
461.32,3653.00
463.94,3696.00
466.55,3706.00
469.17,3695.00
471.78,3696.00
474.39,3706.00
477.00,3727.00
479.61,3685.00
482.22,3706.00
484.82,3727.00
487.42,3642.00
490.02,3632.00
492.62,3685.00
495.21,3685.00
497.81,3632.00
500.40,3579.00
502.99,3547.00
505.58,3548.00
508.17,3515.00
510.75,3547.00
513.33,3495.00
515.91,3431.00
518.49,3463.00
521.07,3495.00
523.65,3473.00
526.22,3505.00
528.79,3589.00
531.36,3516.00
533.93,3484.00
536.49,3547.00
539.06,3579.00
541.62,3569.00
544.18,3590.00
546.74,3568.00
549.30,3547.00
551.85,3527.00
554.40,3516.00
556.95,3516.00
559.50,3579.00
562.05,3558.00
564.59,3516.00
567.14,3558.00
569.68,3569.00
572.22,3527.00
574.76,3463.00
577.29,3410.00
579.83,3378.00
582.36,3431.00
584.89,3484.00
587.42,3484.00
589.95,3474.00
592.47,3462.00
594.99,3389.00
597.52,3442.00
600.04,3410.00
602.55,3346.00
605.07,3335.00
607.58,3378.00
610.09,3346.00
612.60,3346.00
615.11,3283.00
617.62,3314.00
620.12,3241.00
622.63,3294.00
625.13,3262.00
627.63,3272.00
630.13,3283.00
632.62,3293.00
635.12,3240.00
637.61,3166.00
640.10,3240.00
642.59,3261.00
645.07,3273.00
647.56,3272.00
650.04,3209.00
652.52,3229.00
655.00,3209.00
657.48,3188.00
659.96,3156.00
662.43,3187.00
664.90,3155.00
667.37,3208.00
669.84,3219.00
672.31,3187.00
674.78,3209.00
677.24,3208.00
679.70,3145.00
682.16,3070.00
684.62,3113.00
687.08,3177.00
689.53,3103.00
691.98,3103.00
694.43,3209.00
696.88,3198.00
699.33,3040.00
701.78,2986.00
704.22,3060.00
706.66,3061.00
709.10,3082.00
711.54,3082.00
713.98,3124.00
716.42,3166.00
718.85,3113.00
721.28,3039.00
723.71,3103.00
726.14,3124.00
728.57,3283.00
730.99,3293.00
733.41,3209.00
735.83,3177.00
738.25,3102.00
740.67,3061.00
743.09,3028.00
745.50,2965.00
747.91,2955.00
750.33,2912.00
752.73,2880.00
755.14,2965.00
757.55,2934.00
759.95,2870.00
762.35,2785.00
764.75,2806.00
767.15,2881.00
769.55,2859.00
771.95,2795.00
774.34,2806.00
776.73,2870.00
779.12,2923.00
781.51,2880.00
783.90,2817.00
786.28,2817.00
788.67,2817.00
791.05,2838.00
793.43,2838.00
795.80,2870.00
798.18,2775.00
800.56,2743.00
802.93,2753.00
805.30,2690.00
807.67,2742.00
810.04,2732.00
812.40,2795.00
814.77,2711.00
817.13,2700.00
819.49,2742.00
821.85,2732.00
824.21,2679.00
826.57,2605.00
828.92,2563.00
831.27,2584.00
833.63,2605.00
835.98,2563.00
838.32,2573.00
840.67,2573.00
843.01,2584.00
845.36,2637.00
847.70,2669.00
850.04,2563.00
852.37,2616.00
854.71,2626.00
857.05,2530.00
859.38,2457.00
861.71,2467.00
864.04,2478.00
866.37,2531.00
868.69,2563.00
871.02,2573.00
873.34,2647.00
875.66,2552.00
877.98,2467.00
880.30,2510.00
882.62,2573.00
884.93,2478.00
887.24,2383.00
889.55,2467.00
891.86,2489.00
894.17,2436.00
896.48,2446.00
898.78,2446.00
901.09,2425.00
903.39,2457.00
905.69,2509.00
907.99,2520.00
910.28,2435.00
912.58,2489.00
914.87,2521.00
917.16,2467.00
919.45,2404.00
921.74,2383.00
924.03,2478.00
926.31,2478.00
928.60,2457.00
930.88,2404.00
933.16,2435.00
935.44,2467.00
937.72,2393.00
939.99,2329.00
942.26,2393.00
944.54,2435.00
946.81,2393.00
949.08,2372.00
951.34,2382.00
953.61,2329.00
955.87,2329.00
958.14,2362.00
960.40,2277.00
962.66,2340.00
964.92,2340.00
967.17,2288.00
969.43,2235.00
971.68,2266.00
973.93,2287.00
976.18,2255.00
978.43,2244.00
980.68,2277.00
982.92,2245.00
985.17,2213.00
987.41,2256.00
989.65,2244.00
991.89,2171.00
994.12,2181.00
996.36,2160.00
998.59,2202.00
1000.83,2171.00
1003.06,2181.00
1005.29,2170.00
1007.51,2181.00
1009.74,2234.00
1011.97,2213.00
1014.19,2150.00
1016.41,2161.00
1018.63,2214.00
1020.85,2181.00
1023.07,2096.00
1025.28,2182.00
1027.49,2266.00
1029.71,2182.00
1031.92,2202.00
1034.13,2139.00
1036.33,2160.00
1038.54,2150.00
1040.74,2065.00
1042.95,2011.00
1045.15,2012.00
1047.35,2075.00
1049.55,2118.00
1051.74,2118.00
1053.94,2107.00
1056.13,2054.00
1058.32,2054.00
1060.51,2055.00
1062.70,2076.00
1064.89,2054.00
1067.08,2012.00
1069.26,2023.00
1071.44,2054.00
1073.63,2023.00
1075.81,2033.00
1077.98,2001.00
1080.16,2054.00
1082.34,2065.00
1084.51,2065.00
1086.68,2002.00
1088.85,2002.00
1091.02,1991.00
1093.19,2001.00
1095.35,1969.00
1097.52,2065.00
1099.68,2076.00
1101.84,2012.00
1104.00,2033.00
1106.16,2033.00
1108.32,1938.00
1110.48,1874.00
1112.63,1927.00
1114.78,1927.00
1116.93,1938.00
1119.08,1906.00
1121.23,1927.00
1123.38,1969.00
1125.52,1906.00
1127.67,1875.00
1129.81,1895.00
1131.95,1916.00
1134.09,1895.00
1136.22,1948.00
1138.36,1906.00
1140.50,1863.00
1142.63,1916.00
1144.76,1811.00
1146.89,1810.00
1149.02,1853.00
1151.15,1843.00
1153.27,1800.00
1155.40,1863.00
1157.52,1821.00
1159.64,1906.00
1161.76,1917.00
1163.88,1906.00
1165.99,1864.00
1168.11,1853.00
1170.22,1863.00
1172.34,1874.00
1174.45,1790.00
1176.56,1779.00
1178.66,1864.00
1180.77,1896.00
1182.88,1843.00
1184.98,1800.00
1187.08,1853.00
1189.18,1811.00
1191.28,1779.00
1193.38,1831.00
1195.47,1832.00
1197.57,1800.00
1199.66,1726.00
1201.75,1769.00
1203.85,1726.00
1205.93,1673.00
1208.02,1747.00
1210.11,1768.00
1212.19,1747.00
1214.28,1748.00
1216.36,1831.00
1218.44,1832.00
1220.52,1779.00
1222.59,1758.00
1224.67,1779.00
1226.74,1779.00
1228.82,1779.00
1230.89,1736.00
1232.96,1736.00
1235.03,1726.00
1237.10,1705.00
1239.16,1758.00
1241.23,1800.00
1243.29,1726.00
1245.35,1747.00
1247.41,1779.00
1249.47,1737.00
1251.53,1747.00
1253.58,1747.00
1255.64,1716.00
1257.69,1673.00
1259.74,1673.00
1261.79,1737.00
1263.84,1715.00
1265.89,1705.00
1267.93,1694.00
1269.98,1609.00
1272.02,1589.00
1274.06,1609.00
1276.10,1567.00
1278.14,1610.00
1280.18,1652.00
1282.22,1662.00
1284.25,1683.00
1286.28,1673.00
1288.32,1642.00
1290.35,1694.00
1292.38,1631.00
1294.40,1546.00
1296.43,1589.00
1298.46,1588.00
1300.48,1589.00
1302.50,1610.00
1304.52,1578.00
1306.54,1567.00
1308.56,1609.00
1310.58,1621.00
1312.59,1652.00
1314.60,1673.00
1316.62,1641.00
1318.63,1652.00
1320.64,1684.00
1322.65,1652.00
1324.65,1631.00
1326.66,1684.00
1328.66,1694.00
1330.66,1716.00
1332.67,1716.00
1334.67,1715.00
1336.66,1652.00
1338.66,1631.00
1340.66,1578.00
1342.65,1557.00
1344.65,1525.00
1346.64,1578.00
1348.63,1631.00
1350.62,1620.00
1352.60,1567.00
1354.59,1515.00
1356.57,1524.00
1358.56,1525.00
1360.54,1503.00
1362.52,1482.00
1364.50,1525.00
1366.48,1588.00
1368.46,1546.00
1370.43,1482.00
1372.41,1493.00
1374.38,1536.00
1376.35,1461.00
1378.32,1451.00
1380.29,1536.00
1382.25,1546.00
1384.22,1493.00
1386.18,1440.00
1388.15,1440.00
1390.11,1482.00
1392.07,1503.00
1394.03,1514.00
1395.99,1524.00
1397.94,1503.00
1399.90,1472.00
1401.85,1440.00
1403.80,1440.00
1405.76,1482.00
1407.71,1440.00
1409.65,1461.00
1411.60,1451.00
1413.55,1376.00
1415.49,1419.00
1417.44,1419.00
1419.38,1398.00
1421.32,1377.00
1423.26,1366.00
1425.19,1409.00
1427.13,1440.00
1429.07,1377.00
1431.00,1355.00
1432.93,1398.00
1434.86,1472.00
1436.79,1419.00
1438.72,1356.00
1440.65,1366.00
1442.57,1356.00
1444.50,1398.00
1446.42,1388.00
1448.34,1356.00
1450.26,1292.00
1452.18,1323.00
1454.10,1377.00
1456.02,1398.00
1457.93,1366.00
1459.85,1334.00
1461.76,1377.00
1463.67,1366.00
1465.58,1323.00
1467.49,1270.00
1469.40,1249.00
1471.31,1249.00
1473.21,1303.00
1475.11,1356.00
1477.02,1323.00
1478.92,1324.00
1480.82,1376.00
1482.72,1366.00
1484.61,1313.00
1486.51,1335.00
1488.40,1292.00
1490.30,1313.00
1492.19,1260.00
1494.08,1218.00
1495.97,1313.00
1497.86,1344.00
1499.74,1302.00
1501.63,1228.00
1503.51,1196.00
1505.40,1249.00
1507.28,1281.00
1509.16,1292.00
1511.04,1271.00
1512.92,1281.00
1514.79,1302.00
1516.67,1302.00
1518.54,1271.00
1520.42,1271.00
1522.29,1271.00
1524.16,1292.00
1526.03,1292.00
1527.89,1239.00
1529.76,1196.00
1531.63,1281.00
1533.49,1292.00
1535.35,1218.00
1537.21,1175.00
1539.07,1186.00
1540.93,1164.00
1542.79,1196.00
1544.65,1196.00
1546.50,1186.00
1548.36,1250.00
1550.21,1229.00
1552.06,1186.00
1553.91,1133.00
1555.76,1123.00
1557.61,1101.00
1559.45,1143.00
1561.30,1112.00
1563.14,1112.00
1564.98,1091.00
1566.82,1165.00
1568.67,1144.00
1570.50,1143.00
1572.34,1175.00
1574.18,1175.00
1576.01,1101.00
1577.85,1059.00
1579.68,1101.00
1581.51,1102.00
1583.34,1154.00
1585.17,1186.00
1587.00,1123.00
1588.82,1048.00
1590.65,1069.00
1592.47,1080.00
1594.30,1122.00
1596.12,1101.00
1597.94,1090.00
1599.76,1112.00
1601.57,1091.00
1603.39,1101.00
1605.21,1091.00
1607.02,1059.00
1608.83,1048.00
1610.64,1059.00
1612.45,1080.00
1614.26,1006.00
1616.07,1027.00
1617.88,1112.00
1619.68,1069.00
1621.49,1016.00
1623.29,1037.00
1625.09,1101.00
1626.89,1017.00
1628.69,996.00
1630.49,1069.00
1632.29,1049.00
1634.08,985.00
1635.88,964.00
1637.67,985.00
1639.46,1006.00
1641.25,1006.00
1643.04,1016.00
1644.83,1006.00
1646.62,1006.00
1648.41,1017.00
1650.19,953.00
1651.97,953.00
1653.76,953.00
1655.54,953.00
1657.32,974.00
1659.10,964.00
1660.88,985.00
1662.65,995.00
1664.43,943.00
1666.20,943.00
1667.97,974.00
1669.75,932.00
1671.52,910.00
1673.29,943.00
1675.05,996.00
1676.82,932.00
1678.59,900.00
1680.35,921.00
1682.11,932.00
1683.88,974.00
1685.64,964.00
1687.40,900.00
1689.16,869.00
1690.91,911.00
1692.67,942.00
1694.42,974.00
1696.18,932.00
1697.93,921.00
1699.68,890.00
1701.43,879.00
1703.18,900.00
1704.93,911.00
1706.68,932.00
1708.42,921.00
1710.17,826.00
1711.91,858.00
1713.65,869.00
1715.39,858.00
1717.13,890.00
1718.87,826.00
1720.61,784.00
1722.35,826.00
1724.08,879.00
1725.81,794.00
1727.55,773.00
1729.28,805.00
1731.01,848.00
1732.74,890.00
1734.47,847.00
1736.19,762.00
1737.92,773.00
1739.64,805.00
1741.37,837.00
1743.09,826.00
1744.81,784.00
1746.53,784.00
1748.25,848.00
1749.97,826.00
1751.68,794.00
1753.40,783.00
1755.11,784.00
1756.83,805.00
1758.54,794.00
1760.25,805.00
1761.96,826.00
1763.67,795.00
1765.38,784.00
1767.08,783.00
1768.79,763.00
1770.49,762.00
1772.19,763.00
1773.90,699.00
1775.60,741.00
1777.30,720.00
1778.99,741.00
1780.69,773.00
1782.39,773.00
1784.08,752.00
1785.78,751.00
1787.47,741.00
1789.16,784.00
1790.85,794.00
1792.54,773.00
1794.23,730.00
1795.91,752.00
1797.60,752.00
1799.28,763.00
1800.97,762.00
1802.65,751.00
1804.33,730.00
1806.01,794.00
1807.69,741.00
1809.37,721.00
1811.05,763.00
1812.72,773.00
1814.40,709.00
1816.07,709.00
1817.74,720.00
1819.41,763.00
1821.08,783.00
1822.75,720.00
1824.42,720.00
1826.09,741.00
1827.75,720.00
1829.42,688.00
1831.08,668.00
1832.74,741.00
1834.40,710.00
1836.06,678.00
1837.72,677.00
1839.38,721.00
1841.04,752.00
1842.69,730.00
1844.35,678.00
1846.00,657.00
1847.65,614.00
1849.30,656.00
1850.95,720.00
1852.60,688.00
1854.25,656.00
1855.90,635.00
1857.54,635.00
1859.19,688.00
1860.83,688.00
1862.47,720.00
1864.12,710.00
1865.76,625.00
1867.40,593.00
1869.03,646.00
1870.67,625.00
1872.31,657.00
1873.94,636.00
1875.57,646.00
1877.21,699.00
1878.84,656.00
1880.47,657.00
1882.10,615.00
1883.73,646.00
1885.35,657.00
1886.98,614.00
1888.61,615.00
1890.23,614.00
1891.85,593.00
1893.47,614.00
1895.09,635.00
1896.71,614.00
1898.33,604.00
1899.95,614.00
1901.57,625.00
1903.18,593.00
1904.80,615.00
1906.41,656.00
1908.02,656.00
1909.63,625.00
1911.24,593.00
1912.85,593.00
1914.46,571.00
1916.07,551.00
1917.67,572.00
1919.28,572.00
1920.88,593.00
1922.48,636.00
1924.08,583.00
1925.68,562.00
1927.28,604.00
1928.88,646.00
1930.48,604.00
1932.07,551.00
1933.67,593.00
1935.26,572.00
1936.86,572.00
1938.45,614.00
1940.04,615.00
1941.63,604.00
1943.22,572.00
1944.80,572.00
1946.39,551.00
1947.98,582.00
1949.56,561.00
1951.14,561.00
1952.73,530.00
1954.31,540.00
1955.89,572.00
1957.47,562.00
1959.05,572.00
1960.62,572.00
1962.20,498.00
1963.77,540.00
1965.35,593.00
1966.92,593.00
1968.49,540.00
1970.06,498.00
1971.63,498.00
1973.20,498.00
1974.77,519.00
1976.34,540.00
1977.90,498.00
1979.47,562.00
1981.03,550.00
1982.59,530.00
1984.15,572.00
1985.71,551.00
1987.27,529.00
1988.83,529.00
1990.39,529.00
1991.94,551.00
1993.50,582.00
1995.05,550.00
1996.61,518.00
1998.16,498.00
1999.71,508.00
2001.26,456.00
2002.81,508.00
2004.36,519.00
2005.91,519.00
2007.45,519.00
2009.00,477.00
2010.54,487.00
2012.08,487.00
2013.62,487.00
2015.17,466.00
2016.71,466.00
2018.24,488.00
2019.78,508.00
2021.32,508.00
2022.85,519.00
2024.39,498.00
2025.92,508.00
2027.46,497.00
2028.99,498.00
2030.52,519.00
2032.05,456.00
2033.58,477.00
2035.10,477.00
2036.63,444.00
2038.16,444.00
2039.68,477.00
2041.21,488.00
2042.73,466.00
2044.25,508.00
2045.77,497.00
2047.29,456.00
2048.81,445.00
2050.33,487.00
2051.84,476.00
2053.36,423.00
2054.87,455.00
2056.39,509.00
2057.90,434.00
2059.41,445.00
2060.92,466.00
2062.43,445.00
2063.94,445.00
2065.45,444.00
2066.95,423.00
2068.46,456.00
2069.96,424.00
2071.47,435.00
2072.97,466.00
2074.47,423.00
2075.97,424.00
2077.47,423.00
2078.97,434.00
2080.47,423.00
2081.96,444.00
2083.46,402.00
2084.95,423.00
2086.45,434.00
2087.94,403.00
2089.43,477.00
2090.92,466.00
2092.41,445.00
2093.90,381.00
2095.39,350.00
2096.88,423.00
2098.36,434.00
2099.85,445.00
2101.33,413.00
2102.81,445.00
2104.30,403.00
2105.78,434.00
2107.26,466.00
2108.74,413.00
2110.21,402.00
2111.69,392.00
2113.17,392.00
2114.64,445.00
2116.12,413.00
2117.59,424.00
2119.06,413.00
2120.53,445.00
2122.00,413.00
2123.47,413.00
2124.94,424.00
2126.41,381.00
2127.87,360.00
2129.34,403.00
2130.80,392.00
2132.27,424.00
2133.73,424.00
2135.19,424.00
2136.65,423.00
2138.11,402.00
2139.57,349.00
2141.03,371.00
2142.48,370.00
2143.94,381.00
2145.39,381.00
2146.85,381.00
2148.30,381.00
2149.75,371.00
2151.20,360.00
2152.65,360.00
2154.10,402.00
2155.55,382.00
2157.00,424.00
2158.44,402.00
2159.89,328.00
2161.33,360.00
2162.78,382.00
2164.22,371.00
2165.66,370.00
2167.10,392.00
2168.54,318.00
2169.98,318.00
2171.42,318.00
2172.85,392.00
2174.29,360.00
2175.72,286.00
2177.16,328.00
2178.59,339.00
2180.02,329.00
2181.45,360.00
2182.88,392.00
2184.31,339.00
2185.74,360.00
2187.17,338.00
2188.59,339.00
2190.02,403.00
2191.44,360.00
2192.87,307.00
2194.29,307.00
2195.71,307.00
2197.13,307.00
2198.55,307.00
2199.97,276.00
2201.39,296.00
2202.81,296.00
2204.22,317.00
2205.64,329.00
2207.05,318.00
2208.46,307.00
2209.88,360.00
2211.29,339.00
2212.70,338.00
2214.11,360.00
2215.52,360.00
2216.92,370.00
2218.33,339.00
2219.74,307.00
2221.14,360.00
2222.54,339.00
2223.95,255.00
2225.35,307.00
2226.75,286.00
2228.15,318.00
2229.55,360.00
2230.95,349.00
2232.35,328.00
2233.74,317.00
2235.14,264.00
2236.53,276.00
2237.93,339.00
2239.32,318.00
2240.71,276.00
2242.10,275.00
2243.49,286.00
2244.88,285.00
2246.27,307.00
2247.66,296.00
2249.04,276.00
2250.43,276.00
2251.81,297.00
2253.20,265.00
2254.58,275.00
2255.96,328.00
2257.34,317.00
2258.72,275.00
2260.10,255.00
2261.48,318.00
2262.86,296.00
2264.23,307.00
2265.61,296.00
2266.98,338.00
2268.36,349.00
2269.73,254.00
2271.10,233.00
2272.47,275.00
2273.84,254.00
2275.21,297.00
2276.58,329.00
2277.95,339.00
2279.31,339.00
2280.68,255.00
2282.05,297.00
2283.41,296.00
2284.77,286.00
2286.13,318.00
2287.50,275.00
2288.86,297.00
2290.22,318.00
2291.57,275.00
2292.93,233.00
2294.29,212.00
2295.64,265.00
2297.00,296.00
2298.35,339.00
2299.71,317.00
2301.06,254.00
2302.41,307.00
2303.76,275.00
2305.11,254.00
2306.46,233.00
2307.81,212.00
2309.15,223.00
2310.50,254.00
2311.84,233.00
2313.19,264.00
2314.53,275.00
2315.87,297.00
2317.22,296.00
2318.56,296.00
2319.90,254.00
2321.24,275.00
2322.57,286.00
2323.91,286.00
2325.25,233.00
2326.58,222.00
2327.92,254.00
2329.25,265.00
2330.58,254.00
2331.91,244.00
2333.25,243.00
2334.58,244.00
2335.90,276.00
2337.23,275.00
2338.56,243.00
2339.89,254.00
2341.21,275.00
2342.54,276.00
2343.86,212.00
2345.19,233.00
2346.51,211.00
2347.83,190.00
2349.15,233.00
2350.47,202.00
2351.79,233.00
2353.11,223.00
2354.42,211.00
2355.74,255.00
2357.06,244.00
2358.37,243.00
2359.68,191.00
2361.00,233.00
2362.31,254.00
2363.62,212.00
2364.93,180.00
2366.24,212.00
2367.55,170.00
2368.86,190.00
2370.16,233.00
2371.47,212.00
2372.77,223.00
2374.08,254.00
2375.38,191.00
2376.68,233.00
2377.98,275.00
2379.29,244.00
2380.59,212.00
2381.88,191.00
2383.18,212.00
2384.48,244.00
2385.78,202.00
2387.07,180.00
2388.37,127.00
2389.66,159.00
2390.95,212.00
2392.25,202.00
2393.54,233.00
2394.83,201.00
2396.12,191.00
2397.41,191.00
2398.70,159.00
2399.98,170.00
2401.27,212.00
2402.55,255.00
2403.84,244.00
2405.12,202.00
2406.41,202.00
2407.69,202.00
2408.97,201.00
2410.25,159.00
2411.53,117.00
2412.81,138.00
2414.09,180.00
2415.36,170.00
2416.64,211.00
2417.91,244.00
2419.19,211.00
2420.46,169.00
2421.74,159.00
2423.01,169.00
2424.28,180.00
2425.55,169.00
2426.82,180.00
2428.09,180.00
2429.36,201.00
2430.62,212.00
2431.89,190.00
2433.15,191.00
2434.42,191.00
2435.68,180.00
2436.94,138.00
2438.21,180.00
2439.47,170.00
2440.73,180.00
2441.99,170.00
2443.25,190.00
2444.51,254.00
2445.76,223.00
2447.02,191.00
2448.27,149.00
2449.53,137.00
2450.78,170.00
2452.03,212.00
2453.29,169.00
2454.54,148.00
2455.79,159.00
2457.04,149.00
2458.29,169.00
2459.54,223.00
2460.78,212.00
2462.03,191.00
2463.27,159.00
2464.52,159.00
2465.76,138.00
2467.01,148.00
2468.25,148.00
2469.49,169.00
2470.73,149.00
2471.97,148.00
2473.21,137.00
2474.45,190.00
2475.69,212.00
2476.92,169.00
2478.16,149.00
2479.39,180.00
2480.63,159.00
2481.86,149.00
2483.09,138.00
2484.32,149.00
2485.56,169.00
2486.79,169.00
2488.02,180.00
2489.24,180.00
2490.47,191.00
2491.70,191.00
2492.92,148.00
2494.15,148.00
2495.37,148.00
2496.60,138.00
2497.82,138.00
2499.04,169.00
2500.26,148.00
2501.48,138.00
2502.70,127.00
2503.92,212.00
2505.14,233.00
2506.36,191.00
2507.58,170.00
2508.79,149.00
2510.01,138.00
2511.22,127.00
2512.43,127.00
2513.64,148.00
2514.86,138.00
2516.07,127.00
2517.28,106.00
2518.49,190.00
2519.70,159.00
2520.90,180.00
2522.11,190.00
2523.32,212.00
2524.52,148.00
2525.73,117.00
2526.93,127.00
2528.13,149.00
2529.33,127.00
2530.54,117.00
2531.74,117.00
2532.94,106.00
2534.14,106.00
2535.33,137.00
2536.53,127.00
2537.73,127.00
2538.92,127.00
2540.12,138.00
2541.31,149.00
2542.51,149.00
2543.70,138.00
2544.89,180.00
2546.08,159.00
2547.27,138.00
2548.46,127.00
2549.65,169.00
2550.84,149.00
2552.03,159.00
2553.21,169.00
2554.40,127.00
2555.58,148.00
2556.77,159.00
2557.95,170.00
2559.13,138.00
2560.31,106.00
2561.50,138.00
2562.68,212.00
2563.85,117.00
2565.03,138.00
2566.21,148.00
2567.39,138.00
2568.56,85.00
2569.74,106.00
2570.91,149.00
2572.09,149.00
2573.26,170.00
2574.43,170.00
2575.61,159.00
2576.78,117.00
2577.95,127.00
2579.12,148.00
2580.29,127.00
2581.45,127.00
2582.62,138.00
2583.79,169.00
2584.95,180.00
2586.12,159.00
2587.28,159.00
2588.44,169.00
2589.61,148.00
2590.77,106.00
2591.93,138.00
2593.09,63.00
2594.25,106.00
2595.41,117.00
2596.56,85.00
2597.72,180.00
2598.88,191.00
2600.03,170.00
2601.19,127.00
2602.34,106.00
2603.50,106.00
2604.65,127.00
2605.80,127.00
2606.95,138.00
2608.10,138.00
2609.25,149.00
2610.40,117.00
2611.55,106.00
2612.70,84.00
2613.84,148.00
2614.99,127.00
2616.13,116.00
2617.28,117.00
2618.42,149.00
2619.56,138.00
2620.71,106.00
2621.85,117.00
2622.99,117.00
2624.13,127.00
2625.27,127.00
2626.40,127.00
2627.54,106.00
2628.68,127.00
2629.81,127.00
2630.95,64.00
2632.08,63.00
2633.22,116.00
2634.35,106.00
2635.48,85.00
2636.61,117.00
2637.74,127.00
2638.87,138.00
2640.00,149.00
2641.13,106.00
2642.26,138.00
2643.39,149.00
2644.51,117.00
2645.64,74.00
2646.76,85.00
2647.89,127.00
2649.01,138.00
2650.13,106.00
2651.25,43.00
2652.38,64.00
2653.50,74.00
2654.62,64.00
2655.73,95.00
2656.85,106.00
2657.97,127.00
2659.09,159.00
2660.20,106.00
2661.32,127.00
2662.43,148.00
2663.55,127.00
2664.66,127.00
2665.77,127.00
2666.88,84.00
2667.99,42.00
2669.10,96.00
2670.21,159.00
2671.32,148.00
2672.43,96.00
2673.54,96.00
2674.64,85.00
2675.75,95.00
2676.85,95.00
2677.96,106.00
2679.06,85.00
2680.16,85.00
2681.26,63.00
2682.37,96.00
2683.47,138.00
2684.57,127.00
2685.66,96.00
2686.76,63.00
2687.86,85.00
2688.96,74.00
2690.05,74.00
2691.15,64.00
2692.24,95.00
2693.34,74.00
2694.43,96.00
2695.52,159.00
2696.62,127.00
2697.71,127.00
2698.80,138.00
2699.89,53.00
2700.98,63.00
2702.06,95.00
2703.15,85.00
2704.24,43.00
2705.32,74.00
2706.41,85.00
2707.49,64.00
2708.58,95.00
2709.66,106.00
2710.74,64.00
2711.83,63.00
2712.91,74.00
2713.99,117.00
2715.07,84.00
2716.15,84.00
2717.22,32.00
2718.30,42.00
2719.38,53.00
2720.45,53.00
2721.53,95.00
2722.60,96.00
2723.68,85.00
2724.75,32.00
2725.82,22.00
2726.89,63.00
2727.97,106.00
2729.04,138.00
2730.11,85.00
2731.17,106.00
2732.24,127.00
2733.31,106.00
2734.38,42.00
2735.44,63.00
2736.51,106.00
2737.57,106.00
2738.64,53.00
2739.70,106.00
2740.76,95.00
2741.82,117.00
2742.89,74.00
2743.95,32.00
2745.01,63.00
2746.07,64.00
2747.12,63.00
2748.18,42.00
2749.24,42.00
2750.29,95.00
2751.35,74.00
2752.40,42.00
2753.46,11.00
2754.51,64.00
2755.57,106.00
2756.62,117.00
2757.67,74.00
2758.72,53.00
2759.77,63.00
2760.82,63.00
2761.87,53.00
2762.91,42.00
2763.96,63.00
2765.01,85.00
2766.05,84.00
2767.10,64.00
2768.14,85.00
2769.19,95.00
2770.23,32.00
2771.27,42.00
2772.31,53.00
2773.35,42.00
2774.40,53.00
2775.43,74.00
2776.47,85.00
2777.51,106.00
2778.55,74.00
2779.59,106.00
2780.62,106.00
2781.66,138.00
2782.69,106.00
2783.73,75.00
2784.76,63.00
2785.79,42.00
2786.82,74.00
2787.85,106.00
2788.89,84.00
2789.92,85.00
2790.94,32.00
2791.97,21.00
2793.00,84.00
2794.03,85.00
2795.05,85.00
2796.08,64.00
2797.11,32.00
2798.13,21.00
2799.15,53.00
2800.18,106.00
2801.20,84.00
2802.22,74.00
2803.24,42.00
2804.26,53.00
2805.28,42.00
2806.30,53.00
2807.32,53.00
2808.34,74.00
2809.35,85.00
2810.37,85.00
2811.39,53.00
2812.40,106.00
2813.41,106.00
2814.43,85.00
2815.44,42.00
2816.45,43.00
2817.46,21.00
2818.48,21.00
2819.49,95.00
2820.49,42.00
2821.50,21.00
2822.51,21.00
2823.52,43.00
2824.53,43.00
2825.53,85.00
2826.54,74.00
2827.54,42.00
2828.55,32.00
2829.55,52.00
2830.55,63.00
2831.55,43.00
2832.56,43.00
2833.56,32.00
2834.56,85.00
2835.56,127.00
2836.56,84.00
2837.55,85.00
2838.55,64.00
2839.55,0.00
2840.54,32.00
2841.54,53.00
2842.53,63.00
2843.53,53.00
2844.52,31.00
2845.51,42.00
2846.51,53.00
2847.50,53.00
2848.49,42.00
2849.48,42.00
2850.47,96.00
2851.46,74.00
2852.45,74.00
2853.43,21.00
2854.42,53.00
2855.41,64.00
2856.39,74.00
2857.38,74.00
2858.36,43.00
2859.34,32.00
2860.33,21.00
2861.31,0.00
2862.29,22.00
2863.27,11.00
2864.25,31.00
2865.23,0.00
2866.21,11.00
2867.19,11.00
2868.17,43.00
2869.14,43.00
2870.12,53.00
2871.09,31.00
2872.07,42.00
2873.04,64.00
2874.02,85.00
2874.99,84.00
2875.96,64.00
2876.93,21.00
2877.91,21.00
2878.88,53.00
2879.85,52.00
2880.82,84.00
2881.78,74.00
2882.75,85.00
2883.72,106.00
2884.69,74.00
2885.65,32.00
2886.62,63.00
2887.58,32.00
2888.55,75.00
2889.51,42.00
2890.47,21.00
2891.43,10.00
2892.39,43.00
2893.36,74.00
2894.31,84.00
2895.27,63.00
2896.23,21.00
2897.19,10.00
2898.15,74.00
2899.11,106.00
2900.06,64.00
2901.02,0.00
2901.97,21.00
2902.93,11.00
2903.88,21.00
2904.83,32.00
2905.79,42.00
2906.74,21.00
2907.69,21.00
2908.64,32.00
2909.59,53.00
2910.54,84.00
2911.49,64.00
2912.43,42.00
2913.38,21.00
2914.33,22.00
2915.27,43.00
2916.22,43.00
2917.16,53.00
2918.11,64.00
2919.05,85.00
2919.99,74.00
2920.94,21.00
2921.88,21.00
2922.82,21.00
2923.76,32.00
2924.70,32.00
2925.64,32.00
2926.58,21.00
2927.51,10.00
2928.45,10.00
2929.39,31.00
2930.32,42.00
2931.26,0.00
2932.19,0.00
2933.13,42.00
2934.06,10.00
2934.99,53.00
2935.92,43.00
2936.86,21.00
2937.79,32.00
2938.72,53.00
2939.65,10.00
2940.57,43.00
2941.50,32.00
2942.43,11.00
2943.36,0.00
2944.28,10.00
2945.21,21.00
2946.13,0.00
2947.06,21.00
2947.98,0.00
2948.91,-21.00
2949.83,-21.00
2950.75,21.00
2951.67,0.00
2952.59,21.00
2953.51,0.00
2954.43,43.00
2955.35,84.00
2956.27,64.00
2957.19,32.00
2958.10,21.00
2959.02,31.00
2959.94,85.00
2960.85,75.00
2961.77,63.00
2962.68,32.00
2963.59,21.00
2964.51,10.00
2965.42,21.00
2966.33,32.00
2967.24,31.00
2968.15,43.00
2969.06,43.00
2969.97,21.00
2970.88,0.00
2971.78,42.00
2972.69,75.00
2973.60,85.00
2974.50,85.00
2975.41,0.00
2976.31,11.00
2977.22,32.00
2978.12,63.00
2979.02,75.00
2979.93,85.00
2980.83,-21.00
2981.73,-21.00
2982.63,42.00
2983.53,32.00
2984.43,32.00
2985.33,42.00
2986.22,64.00
2987.12,63.00
2988.02,0.00
2988.91,0.00
2989.81,-11.00
2990.70,0.00
2991.60,-10.00
2992.49,63.00
2993.38,75.00
2994.28,63.00
2995.17,53.00
2996.06,42.00
2996.95,21.00
2997.84,53.00
2998.73,32.00
2999.62,-10.00
3000.51,11.00
3001.40,0.00
3002.28,0.00
3003.17,11.00
3004.05,43.00
3004.94,0.00
3005.82,22.00
3006.71,32.00
3007.59,0.00
3008.47,0.00
3009.36,-21.00
3010.24,-21.00
3011.12,-11.00
3012.00,-10.00
3012.88,-11.00
3013.76,31.00
3014.64,75.00
3015.51,32.00
3016.39,10.00
3017.27,21.00
3018.14,31.00
3019.02,-10.00
3019.89,-43.00
3020.77,-32.00
3021.64,0.00
3022.52,0.00
3023.39,43.00
3024.26,64.00
3025.13,64.00
3026.00,42.00
3026.87,-32.00
3027.74,-32.00
3028.61,-21.00
3029.48,-11.00
3030.35,42.00
3031.21,42.00
3032.08,11.00
3032.95,21.00
3033.81,11.00
3034.68,0.00
3035.54,32.00
3036.40,0.00
3037.27,21.00
3038.13,21.00
3038.99,10.00
3039.85,32.00
3040.71,42.00
3041.57,74.00
3042.43,43.00
3043.29,21.00
3044.15,42.00
3045.01,32.00
3045.86,21.00
3046.72,11.00
3047.58,-21.00
3048.43,43.00
3049.29,0.00
3050.14,-42.00
3050.99,-21.00
3051.85,22.00
3052.70,32.00
3053.55,0.00
3054.40,-53.00
3055.25,-32.00
3056.10,0.00
3056.95,74.00
3057.80,32.00
3058.65,53.00
3059.50,32.00
3060.34,0.00
3061.19,0.00
3062.04,74.00
3062.88,74.00
3063.73,85.00
3064.57,64.00
3065.42,-63.00
3066.26,-42.00
3067.10,-21.00
3067.94,0.00
3068.78,0.00
3069.63,42.00
3070.47,11.00
3071.31,-42.00
3072.14,-32.00
3072.98,43.00
3073.82,53.00
3074.66,43.00
3075.49,31.00
3076.33,63.00
3077.17,32.00
3078.00,0.00
3078.83,21.00
3079.67,22.00
3080.50,32.00
3081.33,43.00
3082.17,64.00
3083.00,42.00
3083.83,-21.00
3084.66,10.00
3085.49,53.00
3086.32,42.00
3087.15,-11.00
3087.97,21.00
3088.80,42.00
3089.63,22.00
3090.46,32.00
3091.28,0.00
3092.11,-21.00
3092.93,-32.00
3093.75,-32.00
3094.58,-22.00
3095.40,-21.00
3096.22,-21.00
3097.05,-21.00
3097.87,-21.00
3098.69,-11.00
3099.51,0.00
3100.33,-42.00
3101.15,-21.00
3101.96,11.00
3102.78,53.00
3103.60,11.00
3104.42,-10.00
3105.23,22.00
3106.05,21.00
3106.86,10.00
3107.68,53.00
3108.49,31.00
3109.30,32.00
3110.12,0.00
3110.93,0.00
3111.74,21.00
3112.55,-11.00
3113.36,0.00
3114.17,21.00
3114.98,0.00
3115.79,42.00
3116.60,53.00
3117.40,0.00
3118.21,0.00
3119.02,0.00
3119.82,-43.00
3120.63,0.00
3121.43,42.00
3122.24,32.00
3123.04,0.00
3123.84,0.00
3124.65,11.00
3125.45,-42.00
3126.25,0.00
3127.05,11.00
3127.85,32.00
3128.65,-22.00
3129.45,-42.00
3130.25,-11.00
3131.05,43.00
3131.84,10.00
3132.64,0.00
3133.44,0.00
3134.23,-32.00
3135.03,-42.00
3135.82,0.00
3136.62,0.00
3137.41,0.00
3138.20,21.00
3139.00,-11.00
3139.79,-63.00
3140.58,0.00
3141.37,21.00
3142.16,0.00
3142.95,42.00
3143.74,-21.00
3144.53,-53.00
3145.32,-42.00
3146.10,-42.00
3146.89,0.00
3147.68,0.00
3148.46,0.00
3149.25,10.00
3150.03,-21.00
3150.82,0.00
3151.60,0.00
3152.38,-21.00
3153.17,0.00
3153.95,32.00
3154.73,11.00
3155.51,22.00
3156.29,0.00
3157.07,32.00
3157.85,32.00
3158.63,-32.00
3159.41,-21.00
3160.18,32.00
3160.96,63.00
3161.74,75.00
3162.51,0.00
3163.29,11.00
3164.06,0.00
3164.84,-21.00
3165.61,0.00
3166.38,10.00
3167.16,63.00
3167.93,74.00
3168.70,-10.00
3169.47,-32.00
3170.24,-11.00
3171.01,11.00
3171.78,-22.00
3172.55,-32.00
3173.32,0.00
3174.09,42.00
3174.85,22.00
3175.62,0.00
3176.39,-53.00
3177.15,-32.00
3177.92,0.00
3178.68,0.00
3179.45,42.00
3180.21,43.00
3180.97,-21.00
3181.73,-64.00
3182.50,-53.00
3183.26,0.00
3184.02,0.00
3184.78,-10.00
3185.54,0.00
3186.30,0.00
3187.05,-10.00
3187.81,43.00
3188.57,64.00
3189.33,21.00
3190.08,-10.00
3190.84,0.00
3191.59,0.00
3192.35,-22.00
3193.10,0.00
3193.86,11.00
3194.61,-11.00
3195.36,0.00
3196.12,-10.00
3196.87,-42.00
3197.62,-11.00
3198.37,-31.00
3199.12,11.00
3199.87,21.00
3200.62,-42.00
3201.36,-10.00
3202.11,-21.00
3202.86,11.00
3203.61,0.00
3204.35,11.00
3205.10,42.00
3205.84,11.00
3206.59,11.00
3207.33,-21.00
3208.08,-32.00
3208.82,-10.00
3209.56,0.00
3210.30,-21.00
3211.05,0.00
3211.79,0.00
3212.53,11.00
3213.27,-10.00
3214.01,0.00
3214.75,0.00
3215.48,11.00
3216.22,21.00
3216.96,-32.00
3217.69,-42.00
3218.43,0.00
3219.17,10.00
3219.90,0.00
3220.64,0.00
3221.37,-22.00
3222.10,-32.00
3222.84,0.00
3223.57,0.00
3224.30,21.00
3225.03,11.00
3225.76,21.00
3226.49,11.00
3227.22,21.00
3227.95,10.00
3228.68,-21.00
3229.41,-22.00
3230.14,-64.00
3230.87,-74.00
3231.59,-10.00
3232.32,53.00
3233.04,32.00
3233.77,0.00
3234.49,-21.00
3235.22,11.00
3235.94,-11.00
3236.66,-32.00
3237.39,-53.00
3238.11,-31.00
3238.83,10.00
3239.55,63.00
3240.27,21.00
3240.99,21.00
3241.71,21.00
3242.43,11.00
3243.15,43.00
3243.87,21.00
3244.58,0.00
3245.30,-10.00
3246.02,-21.00
3246.73,-53.00
3247.45,-21.00
3248.16,0.00
3248.88,0.00
3249.59,22.00
3250.30,42.00
3251.01,32.00
3251.73,-10.00
3252.44,-11.00
3253.15,21.00
3253.86,-11.00
3254.57,-32.00
3255.28,-53.00
3255.99,-21.00
3256.70,10.00
3257.41,31.00
3258.11,11.00
3258.82,42.00
3259.53,74.00
3260.23,22.00
3260.94,63.00
3261.64,32.00
3262.35,-63.00
3263.05,-74.00
3263.76,-11.00
3264.46,-32.00
3265.16,-22.00
3265.86,-53.00
3266.56,-63.00
3267.26,-21.00
3267.97,0.00
3268.67,10.00
3269.36,-43.00
3270.06,-11.00
3270.76,42.00
3271.46,21.00
3272.16,-21.00
3272.85,0.00
