RamanShift,Intensity
180.91,484.00
183.74,571.00
186.56,783.00
189.39,1122.00
192.21,1652.00
195.03,2446.00
197.84,3685.00
200.66,5348.00
203.47,7169.00
206.28,9170.00
209.09,11288.00
211.89,13363.00
214.70,14994.00
217.50,16328.00
220.30,17112.00
223.10,17780.00
225.89,18446.00
228.69,18849.00
231.48,19219.00
234.27,19473.00
237.05,19548.00
239.84,19601.00
242.62,19474.00
245.40,19230.00
248.18,19283.00
250.96,19283.00
253.73,19060.00
256.51,18648.00
259.28,18435.00
262.05,18245.00
264.81,18097.00
267.58,18108.00
270.34,18001.00
273.10,18034.00
275.86,18076.00
278.61,18128.00
281.37,18129.00
284.12,18065.00
286.87,18129.00
289.62,18129.00
292.36,18013.00
295.11,17980.00
297.85,18054.00
300.59,18160.00
303.33,18161.00
306.06,18002.00
308.80,18054.00
311.53,18013.00
314.26,18023.00
316.99,18002.00
319.71,17970.00
322.44,17907.00
325.16,17896.00
327.88,18023.00
330.59,17980.00
333.31,17716.00
336.02,17695.00
338.73,17673.00
341.44,17631.00
344.15,17567.00
346.86,17715.00
349.56,17726.00
352.26,17716.00
354.96,17779.00
357.66,17684.00
360.35,17716.00
363.05,17748.00
365.74,17832.00
368.43,17895.00
371.12,18012.00
373.80,18181.00
376.48,18288.00
379.17,18298.00
381.85,18160.00
384.52,18150.00
387.20,18224.00
389.87,18341.00
392.54,18573.00
395.21,18404.00
397.88,18447.00
400.55,18478.00
403.21,18404.00
405.87,18309.00
408.53,18382.00
411.19,18362.00
413.84,18150.00
416.50,18160.00
419.15,18118.00
421.80,18065.00
424.45,18044.00
427.10,18002.00
429.74,18076.00
432.38,18140.00
435.02,18097.00
437.66,18086.00
440.30,18160.00
442.93,18065.00
445.56,17949.00
448.19,18044.00
450.82,18160.00
453.45,18076.00
456.07,18192.00
458.70,18213.00
461.32,18192.00
463.94,18023.00
466.55,18023.00
469.17,18181.00
471.78,18255.00
474.39,18181.00
477.00,18160.00
479.61,18065.00
482.22,18182.00
484.82,18160.00
487.42,18012.00
490.02,17928.00
492.62,17980.00
495.21,17917.00
497.81,17821.00
500.40,17705.00
502.99,17747.00
505.58,17737.00
508.17,17641.00
510.75,17663.00
513.33,17822.00
515.91,17727.00
518.49,17567.00
521.07,17324.00
523.65,17366.00
526.22,17462.00
528.79,17515.00
531.36,17525.00
533.93,17387.00
536.49,17398.00
539.06,17356.00
541.62,17398.00
544.18,17557.00
546.74,17440.00
549.30,17345.00
551.85,17303.00
554.40,17261.00
556.95,17282.00
559.50,17281.00
562.05,17218.00
564.59,17197.00
567.14,17102.00
569.68,17133.00
572.22,17112.00
574.76,16826.00
577.29,16826.00
579.83,16953.00
582.36,16826.00
584.89,16709.00
587.42,16763.00
589.95,16614.00
592.47,16455.00
594.99,16540.00
597.52,16615.00
600.04,16530.00
602.55,16455.00
605.07,16466.00
607.58,16318.00
610.09,16318.00
612.60,16340.00
615.11,16212.00
617.62,16202.00
620.12,16244.00
622.63,16128.00
625.13,16095.00
627.63,15958.00
630.13,16064.00
632.62,16001.00
635.12,15852.00
637.61,15841.00
640.10,15926.00
642.59,15968.00
645.07,15852.00
647.56,15768.00
650.04,15703.00
652.52,15746.00
655.00,15809.00
657.48,15650.00
659.96,15555.00
662.43,15492.00
664.90,15450.00
667.37,15482.00
669.84,15608.00
672.31,15661.00
674.78,15534.00
677.24,15396.00
679.70,15439.00
682.16,15408.00
684.62,15312.00
687.08,15323.00
689.53,15428.00
691.98,15259.00
694.43,15153.00
696.88,15090.00
699.33,14994.00
701.78,14909.00
704.22,14857.00
706.66,14804.00
709.10,14783.00
711.54,14910.00
713.98,14984.00
716.42,14846.00
718.85,14836.00
721.28,14846.00
723.71,14835.00
726.14,15048.00
728.57,15121.00
730.99,15196.00
733.41,15439.00
735.83,15344.00
738.25,15153.00
740.67,15047.00
743.09,14867.00
745.50,14518.00
747.91,14338.00
750.33,14189.00
752.73,14105.00
755.14,14094.00
757.55,13977.00
759.95,14041.00
762.35,14116.00
764.75,13946.00
767.15,13850.00
769.55,13830.00
771.95,13925.00
774.34,13924.00
776.73,13935.00
779.12,13893.00
781.51,13851.00
783.90,13670.00
786.28,13712.00
788.67,13829.00
791.05,13808.00
793.43,13777.00
795.80,13765.00
798.18,13702.00
800.56,13470.00
802.93,13438.00
805.30,13449.00
807.67,13469.00
810.04,13448.00
812.40,13363.00
814.77,13448.00
817.13,13321.00
819.49,13120.00
821.85,13099.00
824.21,13184.00
826.57,13194.00
828.92,13067.00
831.27,12898.00
833.63,12866.00
835.98,12962.00
838.32,12908.00
840.67,12834.00
843.01,12728.00
845.36,12655.00
847.70,12633.00
850.04,12601.00
852.37,12485.00
854.71,12379.00
857.05,12421.00
859.38,12346.00
861.71,12389.00
864.04,12358.00
866.37,12188.00
868.69,12156.00
871.02,12273.00
873.34,12220.00
875.66,12156.00
877.98,12210.00
880.30,12188.00
882.62,12146.00
884.93,12188.00
887.24,12114.00
889.55,11998.00
891.86,11955.00
894.17,11976.00
896.48,11923.00
898.78,11923.00
901.09,11860.00
903.39,11892.00
905.69,11849.00
907.99,11690.00
910.28,11658.00
912.58,11786.00
914.87,11934.00
917.16,11934.00
919.45,11860.00
921.74,11786.00
924.03,11764.00
926.31,11754.00
928.60,11722.00
930.88,11712.00
933.16,11617.00
935.44,11446.00
937.72,11458.00
939.99,11574.00
942.26,11510.00
944.54,11310.00
946.81,11341.00
949.08,11426.00
951.34,11309.00
953.61,11246.00
955.87,11235.00
958.14,11267.00
960.40,11309.00
962.66,11341.00
964.92,11299.00
967.17,11277.00
969.43,11045.00
971.68,11023.00
973.93,10918.00
976.18,10896.00
978.43,10928.00
980.68,10896.00
982.92,10896.00
985.17,10685.00
987.41,10642.00
989.65,10653.00
991.89,10441.00
994.12,10452.00
996.36,10505.00
998.59,10599.00
1000.83,10589.00
1003.06,10431.00
1005.29,10388.00
1007.51,10441.00
1009.74,10547.00
1011.97,10483.00
1014.19,10398.00
1016.41,10293.00
1018.63,10176.00
1020.85,10113.00
1023.07,10229.00
1025.28,10155.00
1027.49,10240.00
1029.71,10324.00
1031.92,10165.00
1034.13,10081.00
1036.33,10113.00
1038.54,10113.00
1040.74,10229.00
1042.95,10261.00
1045.15,10187.00
1047.35,10155.00
1049.55,10028.00
1051.74,9912.00
1053.94,9890.00
1056.13,9869.00
1058.32,9932.00
1060.51,9869.00
1062.70,9795.00
1064.89,9880.00
1067.08,9774.00
1069.26,9890.00
1071.44,10059.00
1073.63,10018.00
1075.81,9753.00
1077.98,9721.00
1080.16,9742.00
1082.34,9668.00
1084.51,9678.00
1086.68,9636.00
1088.85,9637.00
1091.02,9604.00
1093.19,9488.00
1095.35,9499.00
1097.52,9414.00
1099.68,9551.00
1101.84,9572.00
1104.00,9414.00
1106.16,9340.00
1108.32,9361.00
1110.48,9414.00
1112.63,9265.00
1114.78,9234.00
1116.93,9244.00
1119.08,9138.00
1121.23,9234.00
1123.38,9287.00
1125.52,9160.00
1127.67,9106.00
1129.81,9096.00
1131.95,9096.00
1134.09,8979.00
1136.22,8884.00
1138.36,8895.00
1140.50,8948.00
1142.63,8937.00
1144.76,8874.00
1146.89,8842.00
1149.02,8799.00
1151.15,8789.00
1153.27,8799.00
1155.40,8799.00
1157.52,8715.00
1159.64,8630.00
1161.76,8651.00
1163.88,8641.00
1165.99,8693.00
1168.11,8715.00
1170.22,8514.00
1172.34,8546.00
1174.45,8620.00
1176.56,8546.00
1178.66,8556.00
1180.77,8662.00
1182.88,8609.00
1184.98,8482.00
1187.08,8503.00
1189.18,8524.00
1191.28,8546.00
1193.38,8567.00
1195.47,8482.00
1197.57,8397.00
1199.66,8408.00
1201.75,8397.00
1203.85,8355.00
1205.93,8418.00
1208.02,8376.00
1210.11,8323.00
1212.19,8418.00
1214.28,8440.00
1216.36,8408.00
1218.44,8270.00
1220.52,8291.00
1222.59,8249.00
1224.67,8249.00
1226.74,8313.00
1228.82,8355.00
1230.89,8249.00
1232.96,8270.00
1235.03,8249.00
1237.10,8153.00
1239.16,8090.00
1241.23,8069.00
1243.29,8090.00
1245.35,8100.00
1247.41,8048.00
1249.47,8016.00
1251.53,8090.00
1253.58,8016.00
1255.64,8037.00
1257.69,8037.00
1259.74,7900.00
1261.79,7836.00
1263.84,7793.00
1265.89,7825.00
1267.93,7762.00
1269.98,7698.00
1272.02,7731.00
1274.06,7624.00
1276.10,7666.00
1278.14,7709.00
1280.18,7720.00
1282.22,7698.00
1284.25,7603.00
1286.28,7529.00
1288.32,7497.00
1290.35,7529.00
1292.38,7476.00
1294.40,7434.00
1296.43,7380.00
1298.46,7317.00
1300.48,7296.00
1302.50,7391.00
1304.52,7561.00
1306.54,7444.00
1308.56,7381.00
1310.58,7444.00
1312.59,7370.00
1314.60,7296.00
1316.62,7391.00
1318.63,7444.00
1320.64,7423.00
1322.65,7497.00
1324.65,7518.00
1326.66,7476.00
1328.66,7624.00
1330.66,7614.00
1332.67,7582.00
1334.67,7518.00
1336.66,7497.00
1338.66,7487.00
1340.66,7455.00
1342.65,7423.00
1344.65,7338.00
1346.64,7296.00
1348.63,7148.00
1350.62,7063.00
1352.60,6999.00
1354.59,7052.00
1356.57,6999.00
1358.56,7020.00
1360.54,7201.00
1362.52,7063.00
1364.50,6957.00
1366.48,6989.00
1368.46,6936.00
1370.43,6904.00
1372.41,6915.00
1374.38,6851.00
1376.35,6958.00
1378.32,6957.00
1380.29,6840.00
1382.25,6777.00
1384.22,6745.00
1386.18,6714.00
1388.15,6724.00
1390.11,6713.00
1392.07,6767.00
1394.03,6841.00
1395.99,6767.00
1397.94,6756.00
1399.90,6788.00
1401.85,6724.00
1403.80,6640.00
1405.76,6608.00
1407.71,6682.00
1409.65,6682.00
1411.60,6608.00
1413.55,6576.00
1415.49,6523.00
1417.44,6534.00
1419.38,6555.00
1421.32,6460.00
1423.26,6312.00
1425.19,6374.00
1427.13,6470.00
1429.07,6481.00
1431.00,6417.00
1432.93,6343.00
1434.86,6343.00
1436.79,6322.00
1438.72,6269.00
1440.65,6216.00
1442.57,6311.00
1444.50,6385.00
1446.42,6259.00
1448.34,6173.00
1450.26,6195.00
1452.18,6185.00
1454.10,6216.00
1456.02,6237.00
1457.93,6237.00
1459.85,6121.00
1461.76,6015.00
1463.67,5993.00
1465.58,6047.00
1467.49,6004.00
1469.40,5898.00
1471.31,5866.00
1473.21,5877.00
1475.11,5941.00
1477.02,6025.00
1478.92,6004.00
1480.82,6004.00
1482.72,5961.00
1484.61,5919.00
1486.51,5951.00
1488.40,5867.00
1490.30,5887.00
1492.19,5877.00
1494.08,5877.00
1495.97,5792.00
1497.86,5803.00
1499.74,5772.00
1501.63,5665.00
1503.51,5697.00
1505.40,5676.00
1507.28,5718.00
1509.16,5665.00
1511.04,5623.00
1512.92,5686.00
1514.79,5665.00
1516.67,5676.00
1518.54,5666.00
1520.42,5623.00
1522.29,5665.00
1524.16,5675.00
1526.03,5697.00
1527.89,5782.00
1529.76,5718.00
1531.63,5601.00
1533.49,5612.00
1535.35,5570.00
1537.21,5570.00
1539.07,5464.00
1540.93,5475.00
1542.79,5559.00
1544.65,5464.00
1546.50,5432.00
1548.36,5401.00
1550.21,5390.00
1552.06,5422.00
1553.91,5454.00
1555.76,5485.00
1557.61,5411.00
1559.45,5369.00
1561.30,5263.00
1563.14,5326.00
1564.98,5358.00
1566.82,5358.00
1568.67,5326.00
1570.50,5315.00
1572.34,5284.00
1574.18,5241.00
1576.01,5220.00
1577.85,5157.00
1579.68,5073.00
1581.51,5094.00
1583.34,5072.00
1585.17,5093.00
1587.00,5062.00
1588.82,5029.00
1590.65,5019.00
1592.47,5040.00
1594.30,5051.00
1596.12,4977.00
1597.94,4935.00
1599.76,4966.00
1601.57,4998.00
1603.39,4860.00
1605.21,4850.00
1607.02,4903.00
1608.83,4924.00
1610.64,4945.00
1612.45,4914.00
1614.26,4861.00
1616.07,4754.00
1617.88,4818.00
1619.68,4819.00
1621.49,4924.00
1623.29,4808.00
1625.09,4691.00
1626.89,4797.00
1628.69,4808.00
1630.49,4670.00
1632.29,4691.00
1634.08,4723.00
1635.88,4606.00
1637.67,4511.00
1639.46,4553.00
1641.25,4564.00
1643.04,4521.00
1644.83,4564.00
1646.62,4596.00
1648.41,4543.00
1650.19,4564.00
1651.97,4511.00
1653.76,4426.00
1655.54,4468.00
1657.32,4468.00
1659.10,4373.00
1660.88,4363.00
1662.65,4437.00
1664.43,4437.00
1666.20,4395.00
1667.97,4352.00
1669.75,4331.00
1671.52,4342.00
1673.29,4352.00
1675.05,4342.00
1676.82,4342.00
1678.59,4331.00
1680.35,4257.00
1682.11,4204.00
1683.88,4172.00
1685.64,4172.00
1687.40,4246.00
1689.16,4141.00
1690.91,4056.00
1692.67,4130.00
1694.42,4130.00
1696.18,4141.00
1697.93,4087.00
1699.68,4098.00
1701.43,4066.00
1703.18,4056.00
1704.93,4056.00
1706.68,4034.00
1708.42,4003.00
1710.17,4129.00
1711.91,4056.00
1713.65,4013.00
1715.39,4035.00
1717.13,4014.00
1718.87,3992.00
1720.61,3908.00
1722.35,3886.00
1724.08,3950.00
1725.81,3886.00
1727.55,3770.00
1729.28,3759.00
1731.01,3823.00
1732.74,3802.00
1734.47,3802.00
1736.19,3854.00
1737.92,3844.00
1739.64,3802.00
1741.37,3802.00
1743.09,3833.00
1744.81,3770.00
1746.53,3738.00
1748.25,3770.00
1749.97,3802.00
1751.68,3748.00
1753.40,3675.00
1755.11,3622.00
1756.83,3654.00
1758.54,3674.00
1760.25,3738.00
1761.96,3654.00
1763.67,3558.00
1765.38,3590.00
1767.08,3632.00
1768.79,3600.00
1770.49,3505.00
1772.19,3505.00
1773.90,3611.00
1775.60,3568.00
1777.30,3548.00
1778.99,3526.00
1780.69,3516.00
1782.39,3568.00
1784.08,3526.00
1785.78,3526.00
1787.47,3505.00
1789.16,3442.00
1790.85,3420.00
1792.54,3430.00
1794.23,3420.00
1795.91,3399.00
1797.60,3335.00
1799.28,3357.00
1800.97,3452.00
1802.65,3484.00
1804.33,3357.00
1806.01,3325.00
1807.69,3357.00
1809.37,3431.00
1811.05,3431.00
1812.72,3388.00
1814.40,3400.00
1816.07,3410.00
1817.74,3378.00
1819.41,3336.00
1821.08,3346.00
1822.75,3378.00
1824.42,3367.00
1826.09,3272.00
1827.75,3240.00
1829.42,3294.00
1831.08,3219.00
1832.74,3177.00
1834.40,3209.00
1836.06,3188.00
1837.72,3261.00
1839.38,3325.00
1841.04,3241.00
1842.69,3294.00
1844.35,3347.00
1846.00,3262.00
1847.65,3124.00
1849.30,3060.00
1850.95,3103.00
1852.60,3166.00
1854.25,3208.00
1855.90,3134.00
1857.54,3092.00
1859.19,3134.00
1860.83,3071.00
1862.47,3039.00
1864.12,3050.00
1865.76,3039.00
1867.40,3007.00
1869.03,2955.00
1870.67,2976.00
1872.31,2997.00
1873.94,2955.00
1875.57,3071.00
1877.21,2986.00
1878.84,2996.00
1880.47,2996.00
1882.10,2934.00
1883.73,2891.00
1885.35,2870.00
1886.98,2933.00
1888.61,2881.00
1890.23,2732.00
1891.85,2860.00
1893.47,2902.00
1895.09,2859.00
1896.71,2880.00
1898.33,2923.00
1899.95,2912.00
1901.57,2849.00
1903.18,2891.00
1904.80,2880.00
1906.41,2838.00
1908.02,2806.00
1909.63,2711.00
1911.24,2722.00
1912.85,2775.00
1914.46,2764.00
1916.07,2774.00
1917.67,2690.00
1919.28,2689.00
1920.88,2764.00
1922.48,2743.00
1924.08,2753.00
1925.68,2722.00
1927.28,2669.00
1928.88,2658.00
1930.48,2711.00
1932.07,2721.00
1933.67,2711.00
1935.26,2701.00
1936.86,2668.00
1938.45,2615.00
1940.04,2668.00
1941.63,2594.00
1943.22,2531.00
1944.80,2626.00
1946.39,2648.00
1947.98,2626.00
1949.56,2573.00
1951.14,2563.00
1952.73,2584.00
1954.31,2605.00
1955.89,2605.00
1957.47,2594.00
1959.05,2499.00
1960.62,2478.00
1962.20,2478.00
1963.77,2478.00
1965.35,2456.00
1966.92,2435.00
1968.49,2436.00
1970.06,2436.00
1971.63,2446.00
1973.20,2457.00
1974.77,2424.00
1976.34,2425.00
1977.90,2521.00
1979.47,2584.00
1981.03,2510.00
1982.59,2467.00
1984.15,2414.00
1985.71,2393.00
1987.27,2372.00
1988.83,2340.00
1990.39,2362.00
1991.94,2393.00
1993.50,2383.00
1995.05,2425.00
1996.61,2393.00
1998.16,2393.00
1999.71,2394.00
2001.26,2446.00
2002.81,2425.00
2004.36,2319.00
2005.91,2297.00
2007.45,2329.00
2009.00,2372.00
2010.54,2340.00
2012.08,2341.00
2013.62,2330.00
2015.17,2297.00
2016.71,2319.00
2018.24,2234.00
2019.78,2181.00
2021.32,2224.00
2022.85,2288.00
2024.39,2276.00
2025.92,2319.00
2027.46,2276.00
2028.99,2192.00
2030.52,2308.00
2032.05,2298.00
2033.58,2224.00
2035.10,2192.00
2036.63,2245.00
2038.16,2287.00
2039.68,2266.00
2041.21,2234.00
2042.73,2214.00
2044.25,2181.00
2045.77,2182.00
2047.29,2171.00
2048.81,2203.00
2050.33,2181.00
2051.84,2170.00
2053.36,2161.00
2054.87,2139.00
2056.39,2139.00
2057.90,2161.00
2059.41,2128.00
2060.92,2107.00
2062.43,2075.00
2063.94,2044.00
2065.45,2076.00
2066.95,2012.00
2068.46,2012.00
2069.96,2034.00
2071.47,2076.00
2072.97,2055.00
2074.47,2065.00
2075.97,2107.00
2077.47,2064.00
2078.97,2034.00
2080.47,2055.00
2081.96,1970.00
2083.46,2012.00
2084.95,2012.00
2086.45,1949.00
2087.94,1949.00
2089.43,1949.00
2090.92,2001.00
2092.41,1970.00
2093.90,1991.00
2095.39,1959.00
2096.88,1896.00
2098.36,1906.00
2099.85,1896.00
2101.33,1906.00
2102.81,1864.00
2104.30,1843.00
2105.78,1811.00
2107.26,1832.00
2108.74,1885.00
2110.21,1906.00
2111.69,1863.00
2113.17,1800.00
2114.64,1779.00
2116.12,1822.00
2117.59,1821.00
2119.06,1842.00
2120.53,1853.00
2122.00,1821.00
2123.47,1875.00
2124.94,1842.00
2126.41,1789.00
2127.87,1801.00
2129.34,1779.00
2130.80,1747.00
2132.27,1705.00
2133.73,1758.00
2135.19,1737.00
2136.65,1705.00
2138.11,1694.00
2139.57,1716.00
2141.03,1748.00
2142.48,1748.00
2143.94,1726.00
2145.39,1694.00
2146.85,1748.00
2148.30,1704.00
2149.75,1673.00
2151.20,1630.00
2152.65,1610.00
2154.10,1684.00
2155.55,1737.00
2157.00,1737.00
2158.44,1736.00
2159.89,1673.00
2161.33,1610.00
2162.78,1620.00
2164.22,1652.00
2165.66,1620.00
2167.10,1610.00
2168.54,1694.00
2169.98,1663.00
2171.42,1620.00
2172.85,1642.00
2174.29,1642.00
2175.72,1610.00
2177.16,1631.00
2178.59,1651.00
2180.02,1641.00
2181.45,1609.00
2182.88,1610.00
2184.31,1589.00
2185.74,1568.00
2187.17,1568.00
2188.59,1578.00
2190.02,1599.00
2191.44,1599.00
2192.87,1546.00
2194.29,1546.00
2195.71,1599.00
2197.13,1609.00
2198.55,1546.00
2199.97,1546.00
2201.39,1568.00
2202.81,1482.00
2204.22,1482.00
2205.64,1524.00
2207.05,1515.00
2208.46,1524.00
2209.88,1567.00
2211.29,1535.00
2212.70,1525.00
2214.11,1524.00
2215.52,1514.00
2216.92,1525.00
2218.33,1461.00
2219.74,1429.00
2221.14,1451.00
2222.54,1440.00
2223.95,1483.00
2225.35,1504.00
2226.75,1461.00
2228.15,1461.00
2229.55,1430.00
2230.95,1440.00
2232.35,1429.00
2233.74,1418.00
2235.14,1483.00
2236.53,1461.00
2237.93,1451.00
2239.32,1377.00
2240.71,1335.00
2242.10,1345.00
2243.49,1387.00
2244.88,1450.00
2246.27,1430.00
2247.66,1408.00
2249.04,1366.00
2250.43,1387.00
2251.81,1366.00
2253.20,1345.00
2254.58,1366.00
2255.96,1376.00
2257.34,1355.00
2258.72,1356.00
2260.10,1377.00
2261.48,1344.00
2262.86,1366.00
2264.23,1345.00
2265.61,1292.00
2266.98,1313.00
2268.36,1291.00
2269.73,1334.00
2271.10,1344.00
2272.47,1313.00
2273.84,1292.00
2275.21,1344.00
2276.58,1271.00
2277.95,1271.00
2279.31,1324.00
2280.68,1303.00
2282.05,1228.00
2283.41,1217.00
2284.77,1250.00
2286.13,1175.00
2287.50,1207.00
2288.86,1239.00
2290.22,1281.00
2291.57,1302.00
2292.93,1281.00
2294.29,1186.00
2295.64,1229.00
2297.00,1271.00
2298.35,1238.00
2299.71,1196.00
2301.06,1143.00
2302.41,1186.00
2303.76,1239.00
2305.11,1228.00
2306.46,1164.00
2307.81,1144.00
2309.15,1133.00
2310.50,1207.00
2311.84,1228.00
2313.19,1217.00
2314.53,1186.00
2315.87,1176.00
2317.22,1186.00
2318.56,1176.00
2319.90,1133.00
2321.24,1091.00
2322.57,1070.00
2323.91,1102.00
2325.25,1122.00
2326.58,1069.00
2327.92,1123.00
2329.25,1133.00
2330.58,1102.00
2331.91,1038.00
2333.25,1027.00
2334.58,1101.00
2335.90,1111.00
2337.23,1059.00
2338.56,1080.00
2339.89,1112.00
2341.21,1102.00
2342.54,1038.00
2343.86,1016.00
2345.19,1027.00
2346.51,1080.00
2347.83,1048.00
2349.15,1059.00
2350.47,1102.00
2351.79,1070.00
2353.11,1059.00
2354.42,1037.00
2355.74,1059.00
2357.06,1038.00
2358.37,1016.00
2359.68,1006.00
2361.00,953.00
2362.31,932.00
2363.62,963.00
2364.93,964.00
2366.24,974.00
2367.55,1027.00
2368.86,1059.00
2370.16,1006.00
2371.47,996.00
2372.77,1038.00
2374.08,974.00
2375.38,964.00
2376.68,996.00
2377.98,984.00
2379.29,1006.00
2380.59,984.00
2381.88,953.00
2383.18,985.00
2384.48,963.00
2385.78,931.00
2387.07,932.00
2388.37,932.00
2389.66,985.00
2390.95,1038.00
2392.25,974.00
2393.54,974.00
2394.83,974.00
2396.12,953.00
2397.41,953.00
2398.70,932.00
2399.98,932.00
2401.27,943.00
2402.55,932.00
2403.84,943.00
2405.12,921.00
2406.41,932.00
2407.69,932.00
2408.97,878.00
2410.25,868.00
2411.53,900.00
2412.81,953.00
2414.09,868.00
2415.36,857.00
2416.64,879.00
2417.91,879.00
2419.19,911.00
2420.46,879.00
2421.74,890.00
2423.01,890.00
2424.28,922.00
2425.55,921.00
2426.82,836.00
2428.09,868.00
2429.36,911.00
2430.62,869.00
2431.89,889.00
2433.15,889.00
2434.42,921.00
2435.68,963.00
2436.94,858.00
2438.21,816.00
2439.47,816.00
2440.73,805.00
2441.99,837.00
2443.25,847.00
2444.51,826.00
2445.76,783.00
2447.02,847.00
2448.27,847.00
2449.53,858.00
2450.78,857.00
2452.03,847.00
2453.29,847.00
2454.54,815.00
2455.79,805.00
2457.04,805.00
2458.29,815.00
2459.54,805.00
2460.78,794.00
2462.03,763.00
2463.27,783.00
2464.52,773.00
2465.76,763.00
2467.01,773.00
2468.25,795.00
2469.49,804.00
2470.73,773.00
2471.97,794.00
2473.21,836.00
2474.45,795.00
2475.69,816.00
2476.92,783.00
2478.16,752.00
2479.39,763.00
2480.63,762.00
2481.86,763.00
2483.09,762.00
2484.32,763.00
2485.56,773.00
2486.79,784.00
2488.02,773.00
2489.24,794.00
2490.47,783.00
2491.70,752.00
2492.92,731.00
2494.15,752.00
2495.37,731.00
2496.60,698.00
2497.82,678.00
2499.04,689.00
2500.26,667.00
2501.48,657.00
2502.70,646.00
2503.92,667.00
2505.14,699.00
2506.36,731.00
2507.58,720.00
2508.79,699.00
2510.01,678.00
2511.22,656.00
2512.43,688.00
2513.64,731.00
2514.86,636.00
2516.07,614.00
2517.28,657.00
2518.49,678.00
2519.70,656.00
2520.90,635.00
2522.11,699.00
2523.32,720.00
2524.52,656.00
2525.73,635.00
2526.93,646.00
2528.13,604.00
2529.33,678.00
2530.54,678.00
2531.74,656.00
2532.94,699.00
2534.14,688.00
2535.33,667.00
2536.53,678.00
2537.73,677.00
2538.92,678.00
2540.12,710.00
2541.31,667.00
2542.51,656.00
2543.70,636.00
2544.89,625.00
2546.08,615.00
2547.27,635.00
2548.46,646.00
2549.65,603.00
2550.84,614.00
2552.03,625.00
2553.21,625.00
2554.40,636.00
2555.58,603.00
2556.77,604.00
2557.95,593.00
2559.13,593.00
2560.31,572.00
2561.50,593.00
2562.68,615.00
2563.85,571.00
2565.03,604.00
2566.21,656.00
2567.39,635.00
2568.56,604.00
2569.74,562.00
2570.91,551.00
2572.09,551.00
2573.26,593.00
2574.43,614.00
2575.61,593.00
2576.78,572.00
2577.95,540.00
2579.12,551.00
2580.29,583.00
2581.45,593.00
2582.62,572.00
2583.79,583.00
2584.95,551.00
2586.12,593.00
2587.28,550.00
2588.44,540.00
2589.61,582.00
2590.77,593.00
2591.93,582.00
2593.09,540.00
2594.25,572.00
2595.41,551.00
2596.56,593.00
2597.72,572.00
2598.88,551.00
2600.03,540.00
2601.19,551.00
2602.34,530.00
2603.50,583.00
2604.65,593.00
2605.80,550.00
2606.95,529.00
2608.10,540.00
2609.25,509.00
2610.40,508.00
2611.55,509.00
2612.70,562.00
2613.84,604.00
2614.99,572.00
2616.13,529.00
2617.28,519.00
2618.42,508.00
2619.56,477.00
2620.71,519.00
2621.85,562.00
2622.99,572.00
2624.13,529.00
2625.27,540.00
2626.40,530.00
2627.54,466.00
2628.68,477.00
2629.81,487.00
2630.95,466.00
2632.08,434.00
2633.22,487.00
2634.35,498.00
2635.48,466.00
2636.61,455.00
2637.74,445.00
2638.87,455.00
2640.00,466.00
2641.13,445.00
2642.26,424.00
2643.39,466.00
2644.51,477.00
2645.64,445.00
2646.76,444.00
2647.89,444.00
2649.01,488.00
2650.13,508.00
2651.25,445.00
2652.38,466.00
2653.50,455.00
2654.62,455.00
2655.73,487.00
2656.85,487.00
2657.97,508.00
2659.09,497.00
2660.20,477.00
2661.32,466.00
2662.43,456.00
2663.55,477.00
2664.66,487.00
2665.77,445.00
2666.88,413.00
2667.99,424.00
2669.10,445.00
2670.21,498.00
2671.32,519.00
2672.43,508.00
2673.54,445.00
2674.64,403.00
2675.75,371.00
2676.85,403.00
2677.96,466.00
2679.06,476.00
2680.16,424.00
2681.26,435.00
2682.37,424.00
2683.47,413.00
2684.57,381.00
2685.66,413.00
2686.76,466.00
2687.86,445.00
2688.96,424.00
2690.05,477.00
2691.15,444.00
2692.24,455.00
2693.34,435.00
2694.43,424.00
2695.52,403.00
2696.62,382.00
2697.71,445.00
2698.80,456.00
2699.89,424.00
2700.98,360.00
2702.06,392.00
2703.15,360.00
2704.24,402.00
2705.32,423.00
2706.41,392.00
2707.49,339.00
2708.58,371.00
2709.66,402.00
2710.74,339.00
2711.83,360.00
2712.91,350.00
2713.99,371.00
2715.07,339.00
2716.15,338.00
2717.22,392.00
2718.30,349.00
2719.38,370.00
2720.45,392.00
2721.53,349.00
2722.60,328.00
2723.68,381.00
2724.75,403.00
2725.82,360.00
2726.89,318.00
2727.97,318.00
2729.04,360.00
2730.11,402.00
2731.17,413.00
2732.24,434.00
2733.31,434.00
2734.38,382.00
2735.44,392.00
2736.51,381.00
2737.57,360.00
2738.64,370.00
2739.70,339.00
2740.76,350.00
2741.82,360.00
2742.89,360.00
2743.95,360.00
2745.01,349.00
2746.07,339.00
2747.12,360.00
2748.18,307.00
2749.24,307.00
2750.29,318.00
2751.35,402.00
2752.40,392.00
2753.46,403.00
2754.51,370.00
2755.57,338.00
2756.62,339.00
2757.67,339.00
2758.72,307.00
2759.77,307.00
2760.82,339.00
2761.87,392.00
2762.91,360.00
2763.96,307.00
2765.01,339.00
2766.05,382.00
2767.10,360.00
2768.14,371.00
2769.19,403.00
2770.23,339.00
2771.27,307.00
2772.31,297.00
2773.35,307.00
2774.40,318.00
2775.43,339.00
2776.47,297.00
2777.51,275.00
2778.55,276.00
2779.59,244.00
2780.62,275.00
2781.66,296.00
2782.69,317.00
2783.73,308.00
2784.76,307.00
2785.79,275.00
2786.82,307.00
2787.85,265.00
2788.89,254.00
2789.92,318.00
2790.94,339.00
2791.97,296.00
2793.00,275.00
2794.03,265.00
2795.05,286.00
2796.08,265.00
2797.11,254.00
2798.13,297.00
2799.15,265.00
2800.18,318.00
2801.20,297.00
2802.22,276.00
2803.24,276.00
2804.26,254.00
2805.28,254.00
2806.30,297.00
2807.32,297.00
2808.34,254.00
2809.35,255.00
2810.37,307.00
2811.39,286.00
2812.40,297.00
2813.41,233.00
2814.43,255.00
2815.44,276.00
2816.45,276.00
2817.46,318.00
2818.48,296.00
2819.49,275.00
2820.49,265.00
2821.50,275.00
2822.51,275.00
2823.52,201.00
2824.53,233.00
2825.53,296.00
2826.54,254.00
2827.54,276.00
2828.55,255.00
2829.55,233.00
2830.55,296.00
2831.55,296.00
2832.56,264.00
2833.56,275.00
2834.56,233.00
2835.56,222.00
2836.56,212.00
2837.55,233.00
2838.55,233.00
2839.55,254.00
2840.54,233.00
2841.54,233.00
2842.53,286.00
2843.53,264.00
2844.52,170.00
2845.51,180.00
2846.51,265.00
2847.50,296.00
2848.49,254.00
2849.48,180.00
2850.47,223.00
2851.46,202.00
2852.45,222.00
2853.43,233.00
2854.42,233.00
2855.41,212.00
2856.39,222.00
2857.38,233.00
2858.36,254.00
2859.34,296.00
2860.33,297.00
2861.31,233.00
2862.29,180.00
2863.27,212.00
2864.25,275.00
2865.23,233.00
2866.21,222.00
2867.19,211.00
2868.17,191.00
2869.14,222.00
2870.12,244.00
2871.09,211.00
2872.07,211.00
2873.04,233.00
2874.02,254.00
2874.99,233.00
2875.96,244.00
2876.93,254.00
2877.91,254.00
2878.88,275.00
2879.85,211.00
2880.82,222.00
2881.78,201.00
2882.75,212.00
2883.72,233.00
2884.69,212.00
2885.65,202.00
2886.62,222.00
2887.58,212.00
2888.55,223.00
2889.51,211.00
2890.47,212.00
2891.43,307.00
2892.39,286.00
2893.36,211.00
2894.31,169.00
2895.27,190.00
2896.23,191.00
2897.19,170.00
2898.15,211.00
2899.11,254.00
2900.06,169.00
2901.02,222.00
2901.97,243.00
2902.93,211.00
2903.88,212.00
2904.83,212.00
2905.79,190.00
2906.74,180.00
2907.69,212.00
2908.64,286.00
2909.59,243.00
2910.54,201.00
2911.49,201.00
2912.43,201.00
2913.38,233.00
2914.33,233.00
2915.27,212.00
2916.22,180.00
2917.16,191.00
2918.11,180.00
2919.05,138.00
2919.99,190.00
2920.94,180.00
2921.88,180.00
2922.82,169.00
2923.76,212.00
2924.70,254.00
2925.64,255.00
2926.58,180.00
2927.51,191.00
2928.45,127.00
2929.39,169.00
2930.32,212.00
2931.26,233.00
2932.19,201.00
2933.13,180.00
2934.06,191.00
2934.99,201.00
2935.92,212.00
2936.86,191.00
2937.79,180.00
2938.72,202.00
2939.65,159.00
2940.57,169.00
2941.50,137.00
2942.43,149.00
2943.36,159.00
2944.28,169.00
2945.21,191.00
2946.13,190.00
2947.06,190.00
2947.98,169.00
2948.91,159.00
2949.83,138.00
2950.75,190.00
2951.67,191.00
2952.59,191.00
2953.51,169.00
2954.43,190.00
2955.35,201.00
2956.27,201.00
2957.19,223.00
2958.10,180.00
2959.02,138.00
2959.94,148.00
2960.85,180.00
2961.77,169.00
2962.68,170.00
2963.59,222.00
2964.51,148.00
2965.42,180.00
2966.33,117.00
2967.24,95.00
2968.15,127.00
2969.06,138.00
2969.97,85.00
2970.88,138.00
2971.78,169.00
2972.69,169.00
2973.60,159.00
2974.50,127.00
2975.41,170.00
2976.31,191.00
2977.22,138.00
2978.12,106.00
2979.02,116.00
2979.93,137.00
2980.83,180.00
2981.73,190.00
2982.63,169.00
2983.53,191.00
2984.43,190.00
2985.33,170.00
2986.22,169.00
2987.12,190.00
2988.02,127.00
2988.91,137.00
2989.81,127.00
2990.70,148.00
2991.60,148.00
2992.49,169.00
2993.38,116.00
2994.28,106.00
2995.17,127.00
2996.06,159.00
2996.95,159.00
2997.84,159.00
2998.73,138.00
2999.62,116.00
3000.51,84.00
3001.40,127.00
3002.28,127.00
3003.17,85.00
3004.05,95.00
3004.94,137.00
3005.82,212.00
3006.71,254.00
3007.59,255.00
3008.47,159.00
3009.36,106.00
3010.24,95.00
3011.12,85.00
3012.00,106.00
3012.88,137.00
3013.76,138.00
3014.64,106.00
3015.51,148.00
3016.39,127.00
3017.27,106.00
3018.14,75.00
3019.02,106.00
3019.89,127.00
3020.77,180.00
3021.64,127.00
3022.52,137.00
3023.39,106.00
3024.26,137.00
3025.13,127.00
3026.00,170.00
3026.87,148.00
3027.74,127.00
3028.61,137.00
3029.48,85.00
3030.35,85.00
3031.21,127.00
3032.08,201.00
3032.95,180.00
3033.81,169.00
3034.68,127.00
3035.54,148.00
3036.40,148.00
3037.27,106.00
3038.13,96.00
3038.99,127.00
3039.85,180.00
3040.71,149.00
3041.57,95.00
3042.43,42.00
3043.29,43.00
3044.15,105.00
3045.01,85.00
3045.86,42.00
3046.72,96.00
3047.58,75.00
3048.43,106.00
3049.29,84.00
3050.14,105.00
3050.99,85.00
3051.85,95.00
3052.70,63.00
3053.55,53.00
3054.40,63.00
3055.25,170.00
3056.10,148.00
3056.95,148.00
3057.80,116.00
3058.65,74.00
3059.50,64.00
3060.34,64.00
3061.19,32.00
3062.04,10.00
3062.88,21.00
3063.73,42.00
3064.57,137.00
3065.42,127.00
3066.26,74.00
3067.10,95.00
3067.94,127.00
3068.78,127.00
3069.63,85.00
3070.47,84.00
3071.31,106.00
3072.14,127.00
3072.98,127.00
3073.82,22.00
3074.66,64.00
3075.49,74.00
3076.33,74.00
3077.17,106.00
3078.00,116.00
3078.83,95.00
3079.67,138.00
3080.50,191.00
3081.33,138.00
3082.17,32.00
3083.00,84.00
3083.83,85.00
3084.66,63.00
3085.49,85.00
3086.32,106.00
3087.15,85.00
3087.97,64.00
3088.80,96.00
3089.63,64.00
3090.46,117.00
3091.28,117.00
3092.11,95.00
3092.93,138.00
3093.75,117.00
3094.58,74.00
3095.40,84.00
3096.22,85.00
3097.05,105.00
3097.87,84.00
3098.69,84.00
3099.51,74.00
3100.33,63.00
3101.15,105.00
3101.96,74.00
3102.78,53.00
3103.60,53.00
3104.42,43.00
3105.23,85.00
3106.05,75.00
3106.86,138.00
3107.68,106.00
3108.49,64.00
3109.30,21.00
3110.12,53.00
3110.93,127.00
3111.74,106.00
3112.55,106.00
3113.36,159.00
3114.17,117.00
3114.98,63.00
3115.79,106.00
3116.60,116.00
3117.40,96.00
3118.21,85.00
3119.02,106.00
3119.82,117.00
3120.63,32.00
3121.43,95.00
3122.24,64.00
3123.04,64.00
3123.84,42.00
3124.65,74.00
3125.45,85.00
3126.25,117.00
3127.05,106.00
3127.85,106.00
3128.65,85.00
3129.45,96.00
3130.25,127.00
3131.05,64.00
3131.84,64.00
3132.64,106.00
3133.44,64.00
3134.23,53.00
3135.03,75.00
3135.82,64.00
3136.62,42.00
3137.41,85.00
3138.20,53.00
3139.00,31.00
3139.79,11.00
3140.58,106.00
3141.37,127.00
3142.16,42.00
3142.95,64.00
3143.74,127.00
3144.53,74.00
3145.32,32.00
3146.10,11.00
3146.89,-21.00
3147.68,11.00
3148.46,21.00
3149.25,21.00
3150.03,74.00
3150.82,85.00
3151.60,106.00
3152.38,32.00
3153.17,42.00
3153.95,106.00
3154.73,84.00
3155.51,85.00
3156.29,43.00
3157.07,43.00
3157.85,85.00
3158.63,64.00
3159.41,63.00
3160.18,106.00
3160.96,117.00
3161.74,117.00
3162.51,170.00
3163.29,95.00
3164.06,74.00
3164.84,53.00
3165.61,32.00
3166.38,0.00
3167.16,32.00
3167.93,96.00
3168.70,137.00
3169.47,158.00
3170.24,75.00
3171.01,32.00
3171.78,85.00
3172.55,74.00
3173.32,32.00
3174.09,42.00
3174.85,42.00
3175.62,95.00
3176.39,64.00
3177.15,105.00
3177.92,169.00
3178.68,106.00
3179.45,96.00
3180.21,138.00
3180.97,117.00
3181.73,84.00
3182.50,74.00
3183.26,63.00
3184.02,85.00
3184.78,53.00
3185.54,53.00
3186.30,95.00
3187.05,84.00
3187.81,53.00
3188.57,75.00
3189.33,85.00
3190.08,63.00
3190.84,32.00
3191.59,21.00
3192.35,10.00
3193.10,42.00
3193.86,31.00
3194.61,0.00
3195.36,43.00
3196.12,84.00
3196.87,85.00
3197.62,84.00
3198.37,74.00
3199.12,32.00
3199.87,0.00
3200.62,0.00
3201.36,21.00
3202.11,53.00
3202.86,21.00
3203.61,10.00
3204.35,74.00
3205.10,95.00
3205.84,74.00
3206.59,42.00
3207.33,64.00
3208.08,106.00
3208.82,127.00
3209.56,127.00
3210.30,85.00
3211.05,64.00
3211.79,11.00
3212.53,22.00
3213.27,53.00
3214.01,32.00
3214.75,42.00
3215.48,74.00
3216.22,128.00
3216.96,117.00
3217.69,95.00
3218.43,106.00
3219.17,53.00
3219.90,10.00
3220.64,11.00
3221.37,74.00
3222.10,85.00
3222.84,0.00
3223.57,53.00
3224.30,95.00
3225.03,84.00
3225.76,53.00
3226.49,53.00
3227.22,85.00
3227.95,85.00
3228.68,64.00
3229.41,85.00
3230.14,138.00
3230.87,74.00
3231.59,11.00
3232.32,21.00
3233.04,63.00
3233.77,74.00
3234.49,74.00
3235.22,21.00
3235.94,10.00
3236.66,31.00
3237.39,53.00
3238.11,74.00
3238.83,127.00
3239.55,74.00
3240.27,21.00
3240.99,21.00
3241.71,32.00
3242.43,106.00
3243.15,64.00
3243.87,32.00
3244.58,0.00
3245.30,-10.00
3246.02,32.00
3246.73,42.00
3247.45,31.00
3248.16,85.00
3248.88,95.00
3249.59,74.00
3250.30,21.00
3251.01,42.00
3251.73,74.00
3252.44,96.00
3253.15,0.00
3253.86,0.00
3254.57,22.00
3255.28,0.00
3255.99,53.00
3256.70,32.00
3257.41,53.00
3258.11,42.00
3258.82,0.00
3259.53,53.00
3260.23,84.00
3260.94,53.00
3261.64,21.00
3262.35,42.00
3263.05,53.00
3263.76,-21.00
3264.46,32.00
3265.16,85.00
3265.86,63.00
3266.56,0.00
3267.26,-42.00
3267.97,-21.00
3268.67,63.00
3269.36,21.00
3270.06,42.00
3270.76,32.00
3271.46,42.00
3272.16,43.00
3272.85,0.00
