RamanShift,Intensity
180.91,307.00
183.74,360.00
186.56,445.00
189.39,678.00
192.21,1059.00
195.03,1599.00
197.84,2287.00
200.66,3240.00
203.47,4289.00
206.28,5220.00
209.09,6237.00
211.89,7084.00
214.70,7762.00
217.50,8376.00
220.30,8906.00
223.10,9234.00
225.89,9477.00
228.69,9721.00
231.48,9901.00
234.27,10007.00
237.05,10007.00
239.84,9891.00
242.62,9636.00
245.40,9339.00
248.18,8991.00
250.96,8640.00
253.73,8323.00
256.51,7974.00
259.28,7603.00
262.05,7339.00
264.81,7116.00
267.58,6862.00
270.34,6576.00
273.10,6502.00
275.86,6459.00
278.61,6364.00
281.37,6312.00
284.12,6279.00
286.87,6290.00
289.62,6269.00
292.36,6206.00
295.11,6194.00
297.85,6237.00
300.59,6280.00
303.33,6184.00
306.06,6110.00
308.80,6163.00
311.53,6195.00
314.26,6216.00
316.99,6300.00
319.71,6290.00
322.44,6184.00
325.16,6205.00
327.88,6163.00
330.59,6089.00
333.31,6099.00
336.02,6174.00
338.73,6100.00
341.44,6004.00
344.15,5899.00
346.86,5856.00
349.56,5898.00
352.26,5899.00
354.96,5930.00
357.66,5919.00
360.35,5866.00
363.05,5835.00
365.74,5887.00
368.43,6036.00
371.12,6153.00
373.80,6036.00
376.48,5898.00
379.17,6026.00
381.85,6216.00
384.52,6046.00
387.20,5909.00
389.87,5941.00
392.54,5961.00
395.21,6079.00
397.88,6100.00
400.55,6057.00
403.21,6004.00
405.87,5962.00
408.53,6025.00
411.19,6047.00
413.84,6004.00
416.50,5962.00
419.15,6057.00
421.80,6068.00
424.45,5940.00
427.10,5824.00
429.74,5793.00
432.38,5845.00
435.02,5941.00
437.66,5920.00
440.30,5887.00
442.93,5877.00
445.56,5909.00
448.19,5983.00
450.82,5993.00
453.45,6004.00
456.07,5951.00
458.70,5920.00
461.32,6015.00
463.94,5972.00
466.55,5887.00
469.17,5888.00
471.78,5962.00
474.39,5920.00
477.00,5941.00
479.61,6004.00
482.22,5930.00
484.82,5941.00
487.42,5951.00
490.02,5941.00
492.62,6036.00
495.21,5919.00
497.81,5835.00
500.40,5846.00
502.99,5856.00
505.58,5856.00
508.17,5814.00
510.75,5898.00
513.33,5845.00
515.91,5792.00
518.49,5845.00
521.07,5760.00
523.65,5771.00
526.22,5824.00
528.79,5856.00
531.36,5877.00
533.93,5919.00
536.49,5856.00
539.06,5814.00
541.62,5877.00
544.18,5898.00
546.74,5813.00
549.30,5814.00
551.85,5920.00
554.40,5919.00
556.95,5792.00
559.50,5792.00
562.05,5792.00
564.59,5728.00
567.14,5729.00
569.68,5665.00
572.22,5581.00
574.76,5602.00
577.29,5675.00
579.83,5666.00
582.36,5654.00
584.89,5686.00
587.42,5665.00
589.95,5623.00
592.47,5560.00
594.99,5506.00
597.52,5411.00
600.04,5358.00
602.55,5327.00
605.07,5389.00
607.58,5464.00
610.09,5453.00
612.60,5507.00
615.11,5528.00
617.62,5591.00
620.12,5538.00
622.63,5539.00
625.13,5560.00
627.63,5443.00
630.13,5401.00
632.62,5295.00
635.12,5200.00
637.61,5220.00
640.10,5252.00
642.59,5252.00
645.07,5220.00
647.56,5220.00
650.04,5199.00
652.52,5263.00
655.00,5189.00
657.48,5221.00
659.96,5179.00
662.43,5157.00
664.90,5242.00
667.37,5231.00
669.84,5146.00
672.31,5199.00
674.78,5157.00
677.24,5051.00
679.70,5041.00
682.16,5115.00
684.62,5114.00
687.08,5135.00
689.53,5083.00
691.98,5136.00
694.43,5082.00
696.88,4977.00
699.33,4924.00
701.78,4924.00
704.22,4924.00
706.66,4924.00
709.10,4924.00
711.54,4998.00
713.98,5094.00
716.42,5263.00
718.85,5475.00
721.28,5655.00
723.71,5983.00
726.14,6439.00
728.57,6597.00
730.99,6724.00
733.41,6714.00
735.83,6534.00
738.25,6205.00
740.67,5825.00
743.09,5559.00
745.50,5221.00
747.91,4988.00
750.33,4808.00
752.73,4734.00
755.14,4659.00
757.55,4617.00
759.95,4585.00
762.35,4596.00
764.75,4596.00
767.15,4638.00
769.55,4659.00
771.95,4585.00
774.34,4532.00
776.73,4564.00
779.12,4606.00
781.51,4574.00
783.90,4490.00
786.28,4458.00
788.67,4448.00
791.05,4447.00
793.43,4575.00
795.80,4563.00
798.18,4511.00
800.56,4532.00
802.93,4522.00
805.30,4479.00
807.67,4437.00
810.04,4415.00
812.40,4384.00
814.77,4352.00
817.13,4363.00
819.49,4384.00
821.85,4405.00
824.21,4395.00
826.57,4352.00
828.92,4246.00
831.27,4257.00
833.63,4246.00
835.98,4246.00
838.32,4289.00
840.67,4278.00
843.01,4225.00
845.36,4140.00
847.70,4098.00
850.04,4098.00
852.37,4256.00
854.71,4225.00
857.05,4120.00
859.38,4077.00
861.71,4056.00
864.04,4056.00
866.37,4098.00
868.69,4035.00
871.02,3971.00
873.34,4024.00
875.66,4077.00
877.98,4034.00
880.30,4056.00
882.62,4066.00
884.93,4098.00
887.24,4088.00
889.55,4024.00
891.86,4034.00
894.17,3939.00
896.48,3992.00
898.78,4034.00
901.09,3928.00
903.39,3939.00
905.69,4045.00
907.99,3940.00
910.28,3886.00
912.58,3950.00
914.87,3939.00
917.16,3918.00
919.45,3939.00
921.74,4003.00
924.03,3886.00
926.31,3907.00
928.60,3961.00
930.88,3929.00
933.16,3833.00
935.44,3801.00
937.72,3960.00
939.99,3971.00
942.26,3854.00
944.54,3950.00
946.81,4013.00
949.08,3950.00
951.34,3928.00
953.61,3993.00
955.87,4024.00
958.14,3982.00
960.40,4034.00
962.66,4003.00
964.92,3908.00
967.17,3855.00
969.43,3844.00
971.68,3865.00
973.93,3717.00
976.18,3633.00
978.43,3695.00
980.68,3674.00
982.92,3674.00
985.17,3643.00
987.41,3696.00
989.65,3674.00
991.89,3568.00
994.12,3526.00
996.36,3590.00
998.59,3611.00
1000.83,3611.00
1003.06,3664.00
1005.29,3696.00
1007.51,3579.00
1009.74,3590.00
1011.97,3589.00
1014.19,3632.00
1016.41,3611.00
1018.63,3632.00
1020.85,3654.00
1023.07,3643.00
1025.28,3654.00
1027.49,3589.00
1029.71,3548.00
1031.92,3601.00
1034.13,3632.00
1036.33,3632.00
1038.54,3600.00
1040.74,3558.00
1042.95,3579.00
1045.15,3632.00
1047.35,3484.00
1049.55,3462.00
1051.74,3409.00
1053.94,3420.00
1056.13,3431.00
1058.32,3346.00
1060.51,3335.00
1062.70,3357.00
1064.89,3399.00
1067.08,3420.00
1069.26,3431.00
1071.44,3420.00
1073.63,3378.00
1075.81,3314.00
1077.98,3272.00
1080.16,3314.00
1082.34,3335.00
1084.51,3462.00
1086.68,3484.00
1088.85,3441.00
1091.02,3421.00
1093.19,3251.00
1095.35,3208.00
1097.52,3229.00
1099.68,3283.00
1101.84,3240.00
1104.00,3240.00
1106.16,3261.00
1108.32,3314.00
1110.48,3346.00
1112.63,3251.00
1114.78,3250.00
1116.93,3219.00
1119.08,3209.00
1121.23,3187.00
1123.38,3198.00
1125.52,3251.00
1127.67,3251.00
1129.81,3188.00
1131.95,3166.00
1134.09,3209.00
1136.22,3187.00
1138.36,3187.00
1140.50,3145.00
1142.63,3060.00
1144.76,3028.00
1146.89,3039.00
1149.02,3039.00
1151.15,3007.00
1153.27,3017.00
1155.40,3082.00
1157.52,3040.00
1159.64,3029.00
1161.76,2986.00
1163.88,2996.00
1165.99,3039.00
1168.11,3050.00
1170.22,3018.00
1172.34,3061.00
1174.45,2986.00
1176.56,2965.00
1178.66,3049.00
1180.77,3007.00
1182.88,2986.00
1184.98,2944.00
1187.08,2997.00
1189.18,2976.00
1191.28,2986.00
1193.38,3050.00
1195.47,3039.00
1197.57,2997.00
1199.66,3018.00
1201.75,3007.00
1203.85,2996.00
1205.93,2997.00
1208.02,2912.00
1210.11,2912.00
1212.19,3028.00
1214.28,2997.00
1216.36,2954.00
1218.44,2912.00
1220.52,2997.00
1222.59,2975.00
1224.67,2944.00
1226.74,3007.00
1228.82,3039.00
1230.89,3039.00
1232.96,2965.00
1235.03,3029.00
1237.10,3102.00
1239.16,3071.00
1241.23,2986.00
1243.29,2986.00
1245.35,2987.00
1247.41,2922.00
1249.47,2933.00
1251.53,2934.00
1253.58,2996.00
1255.64,2976.00
1257.69,2912.00
1259.74,2891.00
1261.79,2849.00
1263.84,2890.00
1265.89,2902.00
1267.93,2806.00
1269.98,2742.00
1272.02,2785.00
1274.06,2795.00
1276.10,2753.00
1278.14,2827.00
1280.18,2784.00
1282.22,2721.00
1284.25,2700.00
1286.28,2710.00
1288.32,2690.00
1290.35,2668.00
1292.38,2605.00
1294.40,2647.00
1296.43,2669.00
1298.46,2700.00
1300.48,2701.00
1302.50,2658.00
1304.52,2742.00
1306.54,2870.00
1308.56,2859.00
1310.58,2785.00
1312.59,2891.00
1314.60,2933.00
1316.62,3017.00
1318.63,3103.00
1320.64,3229.00
1322.65,3421.00
1324.65,3547.00
1326.66,3547.00
1328.66,3589.00
1330.66,3548.00
1332.67,3547.00
1334.67,3579.00
1336.66,3537.00
1338.66,3410.00
1340.66,3294.00
1342.65,3273.00
1344.65,3187.00
1346.64,3081.00
1348.63,2965.00
1350.62,2975.00
1352.60,2869.00
1354.59,2827.00
1356.57,2849.00
1358.56,2742.00
1360.54,2647.00
1362.52,2627.00
1364.50,2710.00
1366.48,2753.00
1368.46,2764.00
1370.43,2742.00
1372.41,2669.00
1374.38,2668.00
1376.35,2711.00
1378.32,2647.00
1380.29,2573.00
1382.25,2574.00
1384.22,2595.00
1386.18,2552.00
1388.15,2605.00
1390.11,2605.00
1392.07,2616.00
1394.03,2648.00
1395.99,2679.00
1397.94,2689.00
1399.90,2690.00
1401.85,2658.00
1403.80,2764.00
1405.76,2647.00
1407.71,2605.00
1409.65,2605.00
1411.60,2552.00
1413.55,2510.00
1415.49,2499.00
1417.44,2531.00
1419.38,2499.00
1421.32,2435.00
1423.26,2383.00
1425.19,2414.00
1427.13,2394.00
1429.07,2351.00
1431.00,2340.00
1432.93,2351.00
1434.86,2372.00
1436.79,2340.00
1438.72,2372.00
1440.65,2383.00
1442.57,2341.00
1444.50,2340.00
1446.42,2372.00
1448.34,2477.00
1450.26,2478.00
1452.18,2425.00
1454.10,2361.00
1456.02,2362.00
1457.93,2415.00
1459.85,2435.00
1461.76,2393.00
1463.67,2425.00
1465.58,2393.00
1467.49,2383.00
1469.40,2372.00
1471.31,2393.00
1473.21,2383.00
1475.11,2340.00
1477.02,2330.00
1478.92,2330.00
1480.82,2446.00
1482.72,2308.00
1484.61,2256.00
1486.51,2308.00
1488.40,2224.00
1490.30,2181.00
1492.19,2160.00
1494.08,2245.00
1495.97,2276.00
1497.86,2203.00
1499.74,2139.00
1501.63,2139.00
1503.51,2139.00
1505.40,2182.00
1507.28,2203.00
1509.16,2213.00
1511.04,2182.00
1512.92,2161.00
1514.79,2255.00
1516.67,2235.00
1518.54,2213.00
1520.42,2181.00
1522.29,2192.00
1524.16,2181.00
1526.03,2107.00
1527.89,2107.00
1529.76,2128.00
1531.63,2097.00
1533.49,2139.00
1535.35,2150.00
1537.21,2054.00
1539.07,2001.00
1540.93,2075.00
1542.79,2118.00
1544.65,2097.00
1546.50,2012.00
1548.36,2033.00
1550.21,2033.00
1552.06,2033.00
1553.91,2033.00
1555.76,2043.00
1557.61,2096.00
1559.45,2128.00
1561.30,1991.00
1563.14,1991.00
1564.98,2012.00
1566.82,1991.00
1568.67,2033.00
1570.50,2012.00
1572.34,1980.00
1574.18,2001.00
1576.01,1991.00
1577.85,2054.00
1579.68,2118.00
1581.51,2012.00
1583.34,1959.00
1585.17,1949.00
1587.00,1991.00
1588.82,1991.00
1590.65,2012.00
1592.47,2012.00
1594.30,1885.00
1596.12,1864.00
1597.94,1917.00
1599.76,1948.00
1601.57,1938.00
1603.39,1895.00
1605.21,1853.00
1607.02,1864.00
1608.83,1906.00
1610.64,1906.00
1612.45,1906.00
1614.26,1906.00
1616.07,1885.00
1617.88,1895.00
1619.68,1896.00
1621.49,1906.00
1623.29,1842.00
1625.09,1811.00
1626.89,1779.00
1628.69,1768.00
1630.49,1779.00
1632.29,1716.00
1634.08,1748.00
1635.88,1779.00
1637.67,1801.00
1639.46,1843.00
1641.25,1800.00
1643.04,1694.00
1644.83,1737.00
1646.62,1779.00
1648.41,1737.00
1650.19,1758.00
1651.97,1663.00
1653.76,1652.00
1655.54,1736.00
1657.32,1726.00
1659.10,1715.00
1660.88,1715.00
1662.65,1747.00
1664.43,1758.00
1666.20,1769.00
1667.97,1684.00
1669.75,1620.00
1671.52,1673.00
1673.29,1652.00
1675.05,1620.00
1676.82,1609.00
1678.59,1620.00
1680.35,1673.00
1682.11,1631.00
1683.88,1610.00
1685.64,1567.00
1687.40,1567.00
1689.16,1610.00
1690.91,1546.00
1692.67,1525.00
1694.42,1525.00
1696.18,1536.00
1697.93,1546.00
1699.68,1525.00
1701.43,1515.00
1703.18,1504.00
1704.93,1556.00
1706.68,1588.00
1708.42,1546.00
1710.17,1514.00
1711.91,1525.00
1713.65,1525.00
1715.39,1462.00
1717.13,1419.00
1718.87,1493.00
1720.61,1482.00
1722.35,1451.00
1724.08,1461.00
1725.81,1419.00
1727.55,1398.00
1729.28,1494.00
1731.01,1504.00
1732.74,1461.00
1734.47,1430.00
1736.19,1503.00
1737.92,1493.00
1739.64,1366.00
1741.37,1356.00
1743.09,1419.00
1744.81,1377.00
1746.53,1366.00
1748.25,1345.00
1749.97,1398.00
1751.68,1397.00
1753.40,1419.00
1755.11,1419.00
1756.83,1419.00
1758.54,1408.00
1760.25,1345.00
1761.96,1366.00
1763.67,1323.00
1765.38,1271.00
1767.08,1335.00
1768.79,1366.00
1770.49,1355.00
1772.19,1377.00
1773.90,1355.00
1775.60,1335.00
1777.30,1334.00
1778.99,1356.00
1780.69,1335.00
1782.39,1388.00
1784.08,1377.00
1785.78,1270.00
1787.47,1239.00
1789.16,1292.00
1790.85,1345.00
1792.54,1313.00
1794.23,1303.00
1795.91,1302.00
1797.60,1270.00
1799.28,1281.00
1800.97,1271.00
1802.65,1250.00
1804.33,1271.00
1806.01,1250.00
1807.69,1229.00
1809.37,1271.00
1811.05,1313.00
1812.72,1292.00
1814.40,1292.00
1816.07,1239.00
1817.74,1186.00
1819.41,1249.00
1821.08,1271.00
1822.75,1249.00
1824.42,1260.00
1826.09,1249.00
1827.75,1228.00
1829.42,1186.00
1831.08,1207.00
1832.74,1250.00
1834.40,1165.00
1836.06,1207.00
1837.72,1207.00
1839.38,1197.00
1841.04,1228.00
1842.69,1207.00
1844.35,1186.00
1846.00,1164.00
1847.65,1186.00
1849.30,1196.00
1850.95,1123.00
1852.60,1123.00
1854.25,1197.00
1855.90,1196.00
1857.54,1186.00
1859.19,1165.00
1860.83,1186.00
1862.47,1164.00
1864.12,1123.00
1865.76,1133.00
1867.40,1229.00
1869.03,1207.00
1870.67,1165.00
1872.31,1154.00
1873.94,1080.00
1875.57,1048.00
1877.21,1049.00
1878.84,1112.00
1880.47,1144.00
1882.10,1143.00
1883.73,1133.00
1885.35,1101.00
1886.98,1038.00
1888.61,1081.00
1890.23,1143.00
1891.85,1175.00
1893.47,1154.00
1895.09,1133.00
1896.71,1133.00
1898.33,1101.00
1899.95,1081.00
1901.57,1101.00
1903.18,1102.00
1904.80,1049.00
1906.41,1102.00
1908.02,1069.00
1909.63,1080.00
1911.24,1059.00
1912.85,1037.00
1914.46,1059.00
1916.07,1090.00
1917.67,1080.00
1919.28,1016.00
1920.88,974.00
1922.48,1027.00
1924.08,1059.00
1925.68,1027.00
1927.28,1037.00
1928.88,1027.00
1930.48,1017.00
1932.07,1038.00
1933.67,1006.00
1935.26,974.00
1936.86,995.00
1938.45,1016.00
1940.04,1006.00
1941.63,974.00
1943.22,964.00
1944.80,984.00
1946.39,996.00
1947.98,995.00
1949.56,995.00
1951.14,974.00
1952.73,932.00
1954.31,953.00
1955.89,953.00
1957.47,964.00
1959.05,953.00
1960.62,975.00
1962.20,985.00
1963.77,996.00
1965.35,964.00
1966.92,963.00
1968.49,985.00
1970.06,1006.00
1971.63,1006.00
1973.20,995.00
1974.77,932.00
1976.34,911.00
1977.90,911.00
1979.47,975.00
1981.03,932.00
1982.59,900.00
1984.15,879.00
1985.71,900.00
1987.27,953.00
1988.83,975.00
1990.39,953.00
1991.94,911.00
1993.50,921.00
1995.05,953.00
1996.61,932.00
1998.16,931.00
1999.71,910.00
2001.26,931.00
2002.81,942.00
2004.36,932.00
2005.91,868.00
2007.45,857.00
2009.00,879.00
2010.54,889.00
2012.08,868.00
2013.62,869.00
2015.17,890.00
2016.71,879.00
2018.24,911.00
2019.78,911.00
2021.32,837.00
2022.85,837.00
2024.39,858.00
2025.92,837.00
2027.46,826.00
2028.99,805.00
2030.52,805.00
2032.05,847.00
2033.58,858.00
2035.10,804.00
2036.63,826.00
2038.16,858.00
2039.68,879.00
2041.21,869.00
2042.73,858.00
2044.25,847.00
2045.77,890.00
2047.29,847.00
2048.81,847.00
2050.33,826.00
2051.84,762.00
2053.36,805.00
2054.87,848.00
2056.39,816.00
2057.90,816.00
2059.41,826.00
2060.92,869.00
2062.43,847.00
2063.94,816.00
2065.45,763.00
2066.95,783.00
2068.46,848.00
2069.96,847.00
2071.47,826.00
2072.97,794.00
2074.47,805.00
2075.97,805.00
2077.47,741.00
2078.97,709.00
2080.47,752.00
2081.96,773.00
2083.46,784.00
2084.95,763.00
2086.45,763.00
2087.94,720.00
2089.43,741.00
2090.92,773.00
2092.41,742.00
2093.90,720.00
2095.39,731.00
2096.88,741.00
2098.36,731.00
2099.85,721.00
2101.33,699.00
2102.81,668.00
2104.30,699.00
2105.78,730.00
2107.26,720.00
2108.74,752.00
2110.21,752.00
2111.69,742.00
2113.17,752.00
2114.64,773.00
2116.12,741.00
2117.59,699.00
2119.06,677.00
2120.53,730.00
2122.00,773.00
2123.47,710.00
2124.94,699.00
2126.41,720.00
2127.87,773.00
2129.34,741.00
2130.80,720.00
2132.27,710.00
2133.73,710.00
2135.19,678.00
2136.65,699.00
2138.11,730.00
2139.57,741.00
2141.03,699.00
2142.48,646.00
2143.94,646.00
2145.39,646.00
2146.85,699.00
2148.30,668.00
2149.75,709.00
2151.20,709.00
2152.65,667.00
2154.10,667.00
2155.55,678.00
2157.00,678.00
2158.44,688.00
2159.89,667.00
2161.33,657.00
2162.78,699.00
2164.22,667.00
2165.66,603.00
2167.10,604.00
2168.54,614.00
2169.98,668.00
2171.42,624.00
2172.85,624.00
2174.29,699.00
2175.72,720.00
2177.16,656.00
2178.59,656.00
2180.02,678.00
2181.45,678.00
2182.88,614.00
2184.31,614.00
2185.74,603.00
2187.17,603.00
2188.59,636.00
2190.02,624.00
2191.44,646.00
2192.87,625.00
2194.29,614.00
2195.71,636.00
2197.13,624.00
2198.55,625.00
2199.97,635.00
2201.39,636.00
2202.81,635.00
2204.22,657.00
2205.64,614.00
2207.05,604.00
2208.46,625.00
2209.88,603.00
2211.29,593.00
2212.70,593.00
2214.11,604.00
2215.52,593.00
2216.92,550.00
2218.33,603.00
2219.74,583.00
2221.14,614.00
2222.54,624.00
2223.95,657.00
2225.35,657.00
2226.75,603.00
2228.15,593.00
2229.55,614.00
2230.95,614.00
2232.35,593.00
2233.74,550.00
2235.14,551.00
2236.53,572.00
2237.93,551.00
2239.32,582.00
2240.71,540.00
2242.10,562.00
2243.49,582.00
2244.88,593.00
2246.27,550.00
2247.66,487.00
2249.04,561.00
2250.43,540.00
2251.81,572.00
2253.20,550.00
2254.58,530.00
2255.96,562.00
2257.34,550.00
2258.72,583.00
2260.10,572.00
2261.48,571.00
2262.86,571.00
2264.23,530.00
2265.61,477.00
2266.98,455.00
2268.36,498.00
2269.73,572.00
2271.10,582.00
2272.47,540.00
2273.84,572.00
2275.21,540.00
2276.58,530.00
2277.95,540.00
2279.31,487.00
2280.68,508.00
2282.05,509.00
2283.41,508.00
2284.77,562.00
2286.13,530.00
2287.50,508.00
2288.86,445.00
2290.22,466.00
2291.57,509.00
2292.93,508.00
2294.29,508.00
2295.64,508.00
2297.00,540.00
2298.35,508.00
2299.71,529.00
2301.06,498.00
2302.41,498.00
2303.76,508.00
2305.11,487.00
2306.46,444.00
2307.81,487.00
2309.15,540.00
2310.50,508.00
2311.84,455.00
2313.19,466.00
2314.53,487.00
2315.87,518.00
2317.22,551.00
2318.56,529.00
2319.90,508.00
2321.24,466.00
2322.57,423.00
2323.91,487.00
2325.25,509.00
2326.58,466.00
2327.92,465.00
2329.25,466.00
2330.58,519.00
2331.91,540.00
2333.25,508.00
2334.58,455.00
2335.90,466.00
2337.23,466.00
2338.56,497.00
2339.89,455.00
2341.21,434.00
2342.54,403.00
2343.86,465.00
2345.19,455.00
2346.51,434.00
2347.83,435.00
2349.15,445.00
2350.47,455.00
2351.79,424.00
2353.11,434.00
2354.42,413.00
2355.74,424.00
2357.06,434.00
2358.37,466.00
2359.68,434.00
2361.00,413.00
2362.31,423.00
2363.62,424.00
2364.93,434.00
2366.24,434.00
2367.55,424.00
2368.86,413.00
2370.16,402.00
2371.47,466.00
2372.77,413.00
2374.08,423.00
2375.38,413.00
2376.68,424.00
2377.98,455.00
2379.29,466.00
2380.59,392.00
2381.88,392.00
2383.18,381.00
2384.48,350.00
2385.78,423.00
2387.07,487.00
2388.37,487.00
2389.66,498.00
2390.95,424.00
2392.25,402.00
2393.54,381.00
2394.83,402.00
2396.12,402.00
2397.41,381.00
2398.70,360.00
2399.98,392.00
2401.27,402.00
2402.55,403.00
2403.84,381.00
2405.12,402.00
2406.41,402.00
2407.69,392.00
2408.97,403.00
2410.25,381.00
2411.53,360.00
2412.81,392.00
2414.09,381.00
2415.36,349.00
2416.64,360.00
2417.91,349.00
2419.19,371.00
2420.46,392.00
2421.74,392.00
2423.01,382.00
2424.28,402.00
2425.55,382.00
2426.82,382.00
2428.09,381.00
2429.36,360.00
2430.62,349.00
2431.89,382.00
2433.15,338.00
2434.42,349.00
2435.68,349.00
2436.94,360.00
2438.21,403.00
2439.47,402.00
2440.73,402.00
2441.99,381.00
2443.25,360.00
2444.51,350.00
2445.76,381.00
2447.02,371.00
2448.27,392.00
2449.53,381.00
2450.78,318.00
2452.03,360.00
2453.29,329.00
2454.54,349.00
2455.79,360.00
2457.04,339.00
2458.29,307.00
2459.54,360.00
2460.78,392.00
2462.03,392.00
2463.27,392.00
2464.52,318.00
2465.76,318.00
2467.01,307.00
2468.25,318.00
2469.49,318.00
2470.73,328.00
2471.97,318.00
2473.21,318.00
2474.45,296.00
2475.69,276.00
2476.92,318.00
2478.16,296.00
2479.39,307.00
2480.63,339.00
2481.86,318.00
2483.09,307.00
2484.32,360.00
2485.56,391.00
2486.79,403.00
2488.02,360.00
2489.24,339.00
2490.47,349.00
2491.70,370.00
2492.92,402.00
2494.15,360.00
2495.37,339.00
2496.60,339.00
2497.82,286.00
2499.04,297.00
2500.26,339.00
2501.48,360.00
2502.70,339.00
2503.92,329.00
2505.14,338.00
2506.36,297.00
2507.58,297.00
2508.79,307.00
2510.01,297.00
2511.22,329.00
2512.43,328.00
2513.64,297.00
2514.86,307.00
2516.07,328.00
2517.28,328.00
2518.49,296.00
2519.70,265.00
2520.90,318.00
2522.11,318.00
2523.32,318.00
2524.52,307.00
2525.73,307.00
2526.93,286.00
2528.13,276.00
2529.33,297.00
2530.54,329.00
2531.74,276.00
2532.94,265.00
2534.14,286.00
2535.33,275.00
2536.53,338.00
2537.73,296.00
2538.92,275.00
2540.12,329.00
2541.31,329.00
2542.51,286.00
2543.70,307.00
2544.89,275.00
2546.08,265.00
2547.27,275.00
2548.46,254.00
2549.65,276.00
2550.84,329.00
2552.03,339.00
2553.21,296.00
2554.40,255.00
2555.58,275.00
2556.77,308.00
2557.95,297.00
2559.13,265.00
2560.31,254.00
2561.50,275.00
2562.68,297.00
2563.85,254.00
2565.03,254.00
2566.21,254.00
2567.39,254.00
2568.56,265.00
2569.74,297.00
2570.91,297.00
2572.09,275.00
2573.26,222.00
2574.43,254.00
2575.61,318.00
2576.78,307.00
2577.95,265.00
2579.12,255.00
2580.29,223.00
2581.45,223.00
2582.62,285.00
2583.79,285.00
2584.95,276.00
2586.12,275.00
2587.28,254.00
2588.44,296.00
2589.61,276.00
2590.77,243.00
2591.93,233.00
2593.09,244.00
2594.25,265.00
2595.41,233.00
2596.56,243.00
2597.72,276.00
2598.88,233.00
2600.03,265.00
2601.19,254.00
2602.34,201.00
2603.50,223.00
2604.65,265.00
2605.80,275.00
2606.95,275.00
2608.10,297.00
2609.25,329.00
2610.40,307.00
2611.55,255.00
2612.70,275.00
2613.84,265.00
2614.99,275.00
2616.13,222.00
2617.28,212.00
2618.42,254.00
2619.56,244.00
2620.71,244.00
2621.85,233.00
2622.99,264.00
2624.13,233.00
2625.27,190.00
2626.40,233.00
2627.54,244.00
2628.68,212.00
2629.81,222.00
2630.95,243.00
2632.08,211.00
2633.22,233.00
2634.35,244.00
2635.48,254.00
2636.61,222.00
2637.74,201.00
2638.87,212.00
2640.00,180.00
2641.13,212.00
2642.26,212.00
2643.39,212.00
2644.51,223.00
2645.64,212.00
2646.76,255.00
2647.89,233.00
2649.01,191.00
2650.13,201.00
2651.25,233.00
2652.38,254.00
2653.50,170.00
2654.62,191.00
2655.73,233.00
2656.85,233.00
2657.97,212.00
2659.09,159.00
2660.20,212.00
2661.32,265.00
2662.43,254.00
2663.55,244.00
2664.66,233.00
2665.77,170.00
2666.88,201.00
2667.99,201.00
2669.10,212.00
2670.21,254.00
2671.32,254.00
2672.43,254.00
2673.54,212.00
2674.64,212.00
2675.75,243.00
2676.85,244.00
2677.96,233.00
2679.06,244.00
2680.16,212.00
2681.26,180.00
2682.37,191.00
2683.47,202.00
2684.57,212.00
2685.66,212.00
2686.76,201.00
2687.86,191.00
2688.96,212.00
2690.05,233.00
2691.15,212.00
2692.24,170.00
2693.34,180.00
2694.43,233.00
2695.52,233.00
2696.62,243.00
2697.71,201.00
2698.80,149.00
2699.89,180.00
2700.98,212.00
2702.06,233.00
2703.15,201.00
2704.24,190.00
2705.32,211.00
2706.41,191.00
2707.49,148.00
2708.58,138.00
2709.66,170.00
2710.74,158.00
2711.83,138.00
2712.91,169.00
2713.99,170.00
2715.07,180.00
2716.15,201.00
2717.22,170.00
2718.30,159.00
2719.38,190.00
2720.45,212.00
2721.53,169.00
2722.60,180.00
2723.68,170.00
2724.75,180.00
2725.82,202.00
2726.89,180.00
2727.97,170.00
2729.04,148.00
2730.11,170.00
2731.17,148.00
2732.24,138.00
2733.31,149.00
2734.38,137.00
2735.44,137.00
2736.51,127.00
2737.57,159.00
2738.64,201.00
2739.70,211.00
2740.76,170.00
2741.82,190.00
2742.89,159.00
2743.95,170.00
2745.01,169.00
2746.07,127.00
2747.12,128.00
2748.18,169.00
2749.24,180.00
2750.29,190.00
2751.35,180.00
2752.40,222.00
2753.46,223.00
2754.51,190.00
2755.57,180.00
2756.62,158.00
2757.67,127.00
2758.72,148.00
2759.77,169.00
2760.82,191.00
2761.87,211.00
2762.91,180.00
2763.96,116.00
2765.01,148.00
2766.05,180.00
2767.10,170.00
2768.14,180.00
2769.19,190.00
2770.23,169.00
2771.27,138.00
2772.31,170.00
2773.35,190.00
2774.40,170.00
2775.43,191.00
2776.47,212.00
2777.51,180.00
2778.55,170.00
2779.59,169.00
2780.62,169.00
2781.66,169.00
2782.69,190.00
2783.73,159.00
2784.76,63.00
2785.79,85.00
2786.82,190.00
2787.85,159.00
2788.89,127.00
2789.92,128.00
2790.94,148.00
2791.97,148.00
2793.00,148.00
2794.03,149.00
2795.05,148.00
2796.08,148.00
2797.11,127.00
2798.13,149.00
2799.15,106.00
2800.18,138.00
2801.20,158.00
2802.22,117.00
2803.24,127.00
2804.26,148.00
2805.28,116.00
2806.30,138.00
2807.32,149.00
2808.34,127.00
2809.35,128.00
2810.37,148.00
2811.39,159.00
2812.40,117.00
2813.41,159.00
2814.43,169.00
2815.44,127.00
2816.45,117.00
2817.46,106.00
2818.48,95.00
2819.49,180.00
2820.49,159.00
2821.50,148.00
2822.51,169.00
2823.52,127.00
2824.53,158.00
2825.53,169.00
2826.54,191.00
2827.54,159.00
2828.55,148.00
2829.55,137.00
2830.55,84.00
2831.55,106.00
2832.56,127.00
2833.56,106.00
2834.56,148.00
2835.56,159.00
2836.56,127.00
2837.55,170.00
2838.55,190.00
2839.55,159.00
2840.54,127.00
2841.54,127.00
2842.53,148.00
2843.53,159.00
2844.52,148.00
2845.51,148.00
2846.51,138.00
2847.50,148.00
2848.49,159.00
2849.48,117.00
2850.47,149.00
2851.46,159.00
2852.45,106.00
2853.43,127.00
2854.42,191.00
2855.41,169.00
2856.39,117.00
2857.38,106.00
2858.36,148.00
2859.34,169.00
2860.33,180.00
2861.31,159.00
2862.29,148.00
2863.27,127.00
2864.25,180.00
2865.23,180.00
2866.21,169.00
2867.19,159.00
2868.17,106.00
2869.14,116.00
2870.12,127.00
2871.09,127.00
2872.07,127.00
2873.04,106.00
2874.02,137.00
2874.99,149.00
2875.96,95.00
2876.93,106.00
2877.91,127.00
2878.88,117.00
2879.85,106.00
2880.82,96.00
2881.78,117.00
2882.75,95.00
2883.72,105.00
2884.69,169.00
2885.65,180.00
2886.62,116.00
2887.58,106.00
2888.55,116.00
2889.51,127.00
2890.47,127.00
2891.43,127.00
2892.39,117.00
2893.36,85.00
2894.31,84.00
2895.27,95.00
2896.23,137.00
2897.19,96.00
2898.15,116.00
2899.11,180.00
2900.06,95.00
2901.02,63.00
2901.97,42.00
2902.93,106.00
2903.88,116.00
2904.83,127.00
2905.79,106.00
2906.74,106.00
2907.69,148.00
2908.64,159.00
2909.59,191.00
2910.54,169.00
2911.49,149.00
2912.43,116.00
2913.38,127.00
2914.33,106.00
2915.27,148.00
2916.22,159.00
2917.16,138.00
2918.11,106.00
2919.05,138.00
2919.99,138.00
2920.94,127.00
2921.88,169.00
2922.82,148.00
2923.76,137.00
2924.70,169.00
2925.64,138.00
2926.58,148.00
2927.51,149.00
2928.45,106.00
2929.39,148.00
2930.32,149.00
2931.26,106.00
2932.19,106.00
2933.13,149.00
2934.06,106.00
2934.99,137.00
2935.92,148.00
2936.86,105.00
2937.79,106.00
2938.72,106.00
2939.65,42.00
2940.57,64.00
2941.50,148.00
2942.43,149.00
2943.36,85.00
2944.28,84.00
2945.21,127.00
2946.13,149.00
2947.06,127.00
2947.98,127.00
2948.91,96.00
2949.83,95.00
2950.75,85.00
2951.67,74.00
2952.59,85.00
2953.51,148.00
2954.43,117.00
2955.35,85.00
2956.27,106.00
2957.19,169.00
2958.10,223.00
2959.02,180.00
2959.94,96.00
2960.85,64.00
2961.77,43.00
2962.68,42.00
2963.59,63.00
2964.51,85.00
2965.42,117.00
2966.33,106.00
2967.24,116.00
2968.15,84.00
2969.06,106.00
2969.97,180.00
2970.88,116.00
2971.78,96.00
2972.69,96.00
2973.60,95.00
2974.50,63.00
2975.41,85.00
2976.31,95.00
2977.22,85.00
2978.12,85.00
2979.02,84.00
2979.93,127.00
2980.83,75.00
2981.73,53.00
2982.63,84.00
2983.53,95.00
2984.43,105.00
2985.33,96.00
2986.22,43.00
2987.12,42.00
2988.02,63.00
2988.91,64.00
2989.81,106.00
2990.70,138.00
2991.60,106.00
2992.49,63.00
2993.38,95.00
2994.28,127.00
2995.17,85.00
2996.06,84.00
2996.95,85.00
2997.84,74.00
2998.73,85.00
2999.62,42.00
3000.51,43.00
3001.40,95.00
3002.28,106.00
3003.17,106.00
3004.05,85.00
3004.94,42.00
3005.82,42.00
3006.71,84.00
3007.59,64.00
3008.47,64.00
3009.36,74.00
3010.24,63.00
3011.12,63.00
3012.00,63.00
3012.88,63.00
3013.76,63.00
3014.64,53.00
3015.51,106.00
3016.39,85.00
3017.27,96.00
3018.14,42.00
3019.02,63.00
3019.89,85.00
3020.77,64.00
3021.64,63.00
3022.52,74.00
3023.39,43.00
3024.26,42.00
3025.13,95.00
3026.00,117.00
3026.87,84.00
3027.74,53.00
3028.61,42.00
3029.48,63.00
3030.35,42.00
3031.21,95.00
3032.08,84.00
3032.95,85.00
3033.81,105.00
3034.68,106.00
3035.54,64.00
3036.40,127.00
3037.27,95.00
3038.13,64.00
3038.99,74.00
3039.85,32.00
3040.71,21.00
3041.57,64.00
3042.43,74.00
3043.29,53.00
3044.15,95.00
3045.01,85.00
3045.86,53.00
3046.72,0.00
3047.58,0.00
3048.43,43.00
3049.29,63.00
3050.14,42.00
3050.99,53.00
3051.85,22.00
3052.70,53.00
3053.55,85.00
3054.40,74.00
3055.25,95.00
3056.10,75.00
3056.95,63.00
3057.80,32.00
3058.65,21.00
3059.50,74.00
3060.34,22.00
3061.19,53.00
3062.04,74.00
3062.88,53.00
3063.73,64.00
3064.57,42.00
3065.42,31.00
3066.26,42.00
3067.10,10.00
3067.94,10.00
3068.78,0.00
3069.63,11.00
3070.47,32.00
3071.31,42.00
3072.14,74.00
3072.98,32.00
3073.82,42.00
3074.66,85.00
3075.49,42.00
3076.33,53.00
3077.17,64.00
3078.00,43.00
3078.83,74.00
3079.67,106.00
3080.50,127.00
3081.33,85.00
3082.17,42.00
3083.00,52.00
3083.83,31.00
3084.66,85.00
3085.49,106.00
3086.32,74.00
3087.15,64.00
3087.97,42.00
3088.80,63.00
3089.63,63.00
3090.46,64.00
3091.28,21.00
3092.11,84.00
3092.93,106.00
3093.75,127.00
3094.58,95.00
3095.40,95.00
3096.22,84.00
3097.05,42.00
3097.87,43.00
3098.69,43.00
3099.51,53.00
3100.33,84.00
3101.15,74.00
3101.96,42.00
3102.78,53.00
3103.60,85.00
3104.42,53.00
3105.23,53.00
3106.05,43.00
3106.86,42.00
3107.68,0.00
3108.49,63.00
3109.30,74.00
3110.12,52.00
3110.93,105.00
3111.74,106.00
3112.55,74.00
3113.36,74.00
3114.17,84.00
3114.98,52.00
3115.79,21.00
3116.60,106.00
3117.40,127.00
3118.21,85.00
3119.02,42.00
3119.82,21.00
3120.63,43.00
3121.43,53.00
3122.24,63.00
3123.04,63.00
3123.84,21.00
3124.65,63.00
3125.45,127.00
3126.25,64.00
3127.05,42.00
3127.85,84.00
3128.65,95.00
3129.45,117.00
3130.25,149.00
3131.05,117.00
3131.84,53.00
3132.64,32.00
3133.44,43.00
3134.23,84.00
3135.03,21.00
3135.82,0.00
3136.62,0.00
3137.41,21.00
3138.20,63.00
3139.00,32.00
3139.79,32.00
3140.58,32.00
3141.37,85.00
3142.16,74.00
3142.95,63.00
3143.74,43.00
3144.53,32.00
3145.32,31.00
3146.10,53.00
3146.89,53.00
3147.68,31.00
3148.46,63.00
3149.25,64.00
3150.03,64.00
3150.82,95.00
3151.60,75.00
3152.38,63.00
3153.17,31.00
3153.95,74.00
3154.73,64.00
3155.51,11.00
3156.29,21.00
3157.07,43.00
3157.85,43.00
3158.63,42.00
3159.41,42.00
3160.18,11.00
3160.96,53.00
3161.74,75.00
3162.51,43.00
3163.29,74.00
3164.06,95.00
3164.84,11.00
3165.61,43.00
3166.38,106.00
3167.16,106.00
3167.93,85.00
3168.70,63.00
3169.47,85.00
3170.24,85.00
3171.01,64.00
3171.78,43.00
3172.55,22.00
3173.32,0.00
3174.09,21.00
3174.85,21.00
3175.62,-21.00
3176.39,-43.00
3177.15,-32.00
3177.92,21.00
3178.68,21.00
3179.45,63.00
3180.21,21.00
3180.97,11.00
3181.73,95.00
3182.50,64.00
3183.26,53.00
3184.02,42.00
3184.78,42.00
3185.54,21.00
3186.30,21.00
3187.05,63.00
3187.81,-21.00
3188.57,0.00
3189.33,52.00
3190.08,127.00
3190.84,63.00
3191.59,10.00
3192.35,11.00
3193.10,42.00
3193.86,53.00
3194.61,21.00
3195.36,21.00
3196.12,42.00
3196.87,63.00
3197.62,63.00
3198.37,31.00
3199.12,42.00
3199.87,21.00
3200.62,64.00
3201.36,95.00
3202.11,64.00
3202.86,21.00
3203.61,0.00
3204.35,-32.00
3205.10,0.00
3205.84,42.00
3206.59,43.00
3207.33,53.00
3208.08,43.00
3208.82,43.00
3209.56,31.00
3210.30,53.00
3211.05,43.00
3211.79,42.00
3212.53,10.00
3213.27,32.00
3214.01,21.00
3214.75,11.00
3215.48,0.00
3216.22,21.00
3216.96,85.00
3217.69,106.00
3218.43,64.00
3219.17,43.00
3219.90,85.00
3220.64,53.00
3221.37,32.00
3222.10,85.00
3222.84,64.00
3223.57,43.00
3224.30,10.00
3225.03,0.00
3225.76,32.00
3226.49,53.00
3227.22,106.00
3227.95,32.00
3228.68,0.00
3229.41,43.00
3230.14,63.00
3230.87,43.00
3231.59,42.00
3232.32,74.00
3233.04,63.00
3233.77,53.00
3234.49,96.00
3235.22,106.00
3235.94,42.00
3236.66,11.00
3237.39,42.00
3238.11,32.00
3238.83,74.00
3239.55,74.00
3240.27,21.00
3240.99,11.00
3241.71,32.00
3242.43,-10.00
3243.15,21.00
3243.87,0.00
3244.58,11.00
3245.30,32.00
3246.02,31.00
3246.73,-11.00
3247.45,32.00
3248.16,106.00
3248.88,85.00
3249.59,43.00
3250.30,52.00
3251.01,64.00
3251.73,64.00
3252.44,32.00
3253.15,0.00
3253.86,-10.00
3254.57,0.00
3255.28,21.00
3255.99,31.00
3256.70,11.00
3257.41,53.00
3258.11,84.00
3258.82,21.00
3259.53,-43.00
3260.23,-22.00
3260.94,42.00
3261.64,43.00
3262.35,32.00
3263.05,0.00
3263.76,63.00
3264.46,21.00
3265.16,-21.00
3265.86,74.00
3266.56,106.00
3267.26,-32.00
3267.97,11.00
3268.67,31.00
3269.36,95.00
3270.06,53.00
3270.76,42.00
3271.46,84.00
3272.16,127.00
3272.85,0.00
