RamanShift,Intensity
180.91,302.00
183.74,381.00
186.56,435.00
189.39,583.00
192.21,826.00
195.03,1186.00
197.84,1704.00
200.66,2297.00
203.47,3124.00
206.28,3781.00
209.09,4469.00
211.89,5062.00
214.70,5453.00
217.50,5803.00
220.30,6057.00
223.10,6099.00
225.89,6279.00
228.69,6481.00
231.48,6660.00
234.27,6639.00
237.05,6607.00
239.84,6639.00
242.62,6587.00
245.40,6481.00
248.18,6406.00
250.96,6417.00
253.73,6290.00
256.51,6163.00
259.28,6078.00
262.05,6057.00
264.81,5919.00
267.58,5877.00
270.34,5877.00
273.10,5845.00
275.86,5898.00
278.61,5930.00
281.37,5792.00
284.12,5792.00
286.87,5877.00
289.62,5866.00
292.36,5792.00
295.11,5739.00
297.85,5739.00
300.59,5718.00
303.33,5728.00
306.06,5740.00
308.80,5856.00
311.53,5888.00
314.26,5761.00
316.99,5750.00
319.71,5792.00
322.44,5761.00
325.16,5634.00
327.88,5686.00
330.59,5813.00
333.31,5793.00
336.02,5707.00
338.73,5718.00
341.44,5707.00
344.15,5686.00
346.86,5697.00
349.56,5729.00
352.26,5601.00
354.96,5559.00
357.66,5655.00
360.35,5750.00
363.05,5729.00
365.74,5729.00
368.43,5760.00
371.12,5792.00
373.80,5834.00
376.48,5941.00
379.17,5898.00
381.85,5899.00
384.52,5919.00
387.20,5930.00
389.87,5898.00
392.54,5993.00
395.21,5993.00
397.88,5930.00
400.55,5919.00
403.21,5982.00
405.87,5951.00
408.53,5930.00
411.19,5941.00
413.84,5940.00
416.50,5877.00
419.15,6015.00
421.80,5961.00
424.45,5813.00
427.10,5824.00
429.74,5877.00
432.38,5887.00
435.02,5887.00
437.66,5888.00
440.30,5972.00
442.93,6004.00
445.56,5898.00
448.19,5941.00
450.82,5930.00
453.45,5972.00
456.07,5994.00
458.70,6025.00
461.32,6015.00
463.94,5972.00
466.55,5951.00
469.17,5941.00
471.78,5993.00
474.39,5972.00
477.00,5951.00
479.61,5951.00
482.22,5972.00
484.82,5919.00
487.42,5887.00
490.02,5814.00
492.62,5771.00
495.21,5856.00
497.81,5792.00
500.40,5772.00
502.99,5846.00
505.58,5835.00
508.17,5771.00
510.75,5792.00
513.33,5824.00
515.91,5845.00
518.49,5824.00
521.07,5813.00
523.65,5814.00
526.22,5750.00
528.79,5771.00
531.36,5835.00
533.93,5813.00
536.49,5803.00
539.06,5771.00
541.62,5719.00
544.18,5835.00
546.74,5729.00
549.30,5740.00
551.85,5719.00
554.40,5644.00
556.95,5729.00
559.50,5761.00
562.05,5612.00
564.59,5580.00
567.14,5687.00
569.68,5645.00
572.22,5559.00
574.76,5591.00
577.29,5496.00
579.83,5528.00
582.36,5549.00
584.89,5559.00
587.42,5549.00
589.95,5580.00
592.47,5485.00
594.99,5496.00
597.52,5422.00
600.04,5380.00
602.55,5401.00
605.07,5390.00
607.58,5337.00
610.09,5348.00
612.60,5347.00
615.11,5379.00
617.62,5422.00
620.12,5380.00
622.63,5263.00
625.13,5220.00
627.63,5305.00
630.13,5273.00
632.62,5262.00
635.12,5168.00
637.61,5157.00
640.10,5168.00
642.59,5114.00
645.07,5125.00
647.56,5104.00
650.04,5094.00
652.52,5061.00
655.00,5083.00
657.48,5242.00
659.96,5221.00
662.43,5093.00
664.90,5093.00
667.37,5051.00
669.84,5083.00
672.31,5083.00
674.78,5019.00
677.24,4924.00
679.70,5009.00
682.16,5073.00
684.62,5125.00
687.08,5157.00
689.53,5041.00
691.98,5008.00
694.43,4966.00
696.88,4956.00
699.33,4914.00
701.78,4935.00
704.22,4881.00
706.66,4796.00
709.10,4818.00
711.54,4818.00
713.98,4881.00
716.42,4956.00
718.85,4935.00
721.28,4988.00
723.71,5168.00
726.14,5295.00
728.57,5316.00
730.99,5263.00
733.41,5295.00
735.83,5274.00
738.25,5178.00
740.67,5009.00
743.09,4829.00
745.50,4776.00
747.91,4766.00
750.33,4702.00
752.73,4649.00
755.14,4617.00
757.55,4627.00
759.95,4617.00
762.35,4649.00
764.75,4627.00
767.15,4617.00
769.55,4649.00
771.95,4617.00
774.34,4543.00
776.73,4458.00
779.12,4501.00
781.51,4564.00
783.90,4607.00
786.28,4585.00
788.67,4596.00
791.05,4574.00
793.43,4500.00
795.80,4469.00
798.18,4436.00
800.56,4458.00
802.93,4489.00
805.30,4469.00
807.67,4373.00
810.04,4394.00
812.40,4479.00
814.77,4469.00
817.13,4395.00
819.49,4320.00
821.85,4310.00
824.21,4331.00
826.57,4310.00
828.92,4278.00
831.27,4267.00
833.63,4247.00
835.98,4215.00
838.32,4299.00
840.67,4330.00
843.01,4299.00
845.36,4162.00
847.70,4108.00
850.04,4055.00
852.37,4204.00
854.71,4204.00
857.05,4119.00
859.38,4161.00
861.71,4120.00
864.04,4045.00
866.37,4077.00
868.69,4108.00
871.02,3993.00
873.34,3981.00
875.66,3981.00
877.98,3971.00
880.30,3960.00
882.62,3950.00
884.93,4056.00
887.24,4034.00
889.55,3918.00
891.86,3897.00
894.17,3929.00
896.48,3907.00
898.78,3949.00
901.09,3949.00
903.39,3992.00
905.69,3960.00
907.99,3908.00
910.28,4003.00
912.58,4077.00
914.87,3950.00
917.16,3854.00
919.45,3823.00
921.74,3844.00
924.03,3855.00
926.31,3865.00
928.60,3834.00
930.88,3812.00
933.16,3833.00
935.44,3833.00
937.72,3844.00
939.99,3844.00
942.26,3802.00
944.54,3854.00
946.81,3833.00
949.08,3823.00
951.34,3780.00
953.61,3781.00
955.87,3770.00
958.14,3695.00
960.40,3728.00
962.66,3685.00
964.92,3632.00
967.17,3643.00
969.43,3706.00
971.68,3727.00
973.93,3601.00
976.18,3516.00
978.43,3547.00
980.68,3611.00
982.92,3505.00
985.17,3420.00
987.41,3357.00
989.65,3389.00
991.89,3463.00
994.12,3474.00
996.36,3537.00
998.59,3484.00
1000.83,3474.00
1003.06,3452.00
1005.29,3388.00
1007.51,3420.00
1009.74,3495.00
1011.97,3495.00
1014.19,3505.00
1016.41,3399.00
1018.63,3346.00
1020.85,3304.00
1023.07,3314.00
1025.28,3399.00
1027.49,3483.00
1029.71,3452.00
1031.92,3399.00
1034.13,3378.00
1036.33,3399.00
1038.54,3325.00
1040.74,3378.00
1042.95,3367.00
1045.15,3272.00
1047.35,3315.00
1049.55,3346.00
1051.74,3325.00
1053.94,3314.00
1056.13,3335.00
1058.32,3304.00
1060.51,3198.00
1062.70,3177.00
1064.89,3230.00
1067.08,3209.00
1069.26,3145.00
1071.44,3177.00
1073.63,3262.00
1075.81,3241.00
1077.98,3208.00
1080.16,3219.00
1082.34,3250.00
1084.51,3251.00
1086.68,3187.00
1088.85,3103.00
1091.02,3145.00
1093.19,3155.00
1095.35,3198.00
1097.52,3134.00
1099.68,3166.00
1101.84,3135.00
1104.00,3092.00
1106.16,3113.00
1108.32,3187.00
1110.48,3208.00
1112.63,3123.00
1114.78,3092.00
1116.93,3029.00
1119.08,2986.00
1121.23,3050.00
1123.38,3008.00
1125.52,3039.00
1127.67,3061.00
1129.81,2997.00
1131.95,3007.00
1134.09,3060.00
1136.22,3018.00
1138.36,2912.00
1140.50,2954.00
1142.63,2923.00
1144.76,2859.00
1146.89,2912.00
1149.02,2912.00
1151.15,2870.00
1153.27,2848.00
1155.40,2912.00
1157.52,2870.00
1159.64,2901.00
1161.76,2954.00
1163.88,2965.00
1165.99,2922.00
1168.11,2923.00
1170.22,2912.00
1172.34,2890.00
1174.45,2891.00
1176.56,2880.00
1178.66,2869.00
1180.77,2880.00
1182.88,2849.00
1184.98,2848.00
1187.08,2816.00
1189.18,2785.00
1191.28,2870.00
1193.38,2870.00
1195.47,2827.00
1197.57,2827.00
1199.66,2795.00
1201.75,2754.00
1203.85,2732.00
1205.93,2774.00
1208.02,2785.00
1210.11,2785.00
1212.19,2785.00
1214.28,2732.00
1216.36,2690.00
1218.44,2732.00
1220.52,2764.00
1222.59,2753.00
1224.67,2743.00
1226.74,2742.00
1228.82,2753.00
1230.89,2775.00
1232.96,2775.00
1235.03,2785.00
1237.10,2838.00
1239.16,2764.00
1241.23,2700.00
1243.29,2711.00
1245.35,2690.00
1247.41,2658.00
1249.47,2690.00
1251.53,2679.00
1253.58,2626.00
1255.64,2668.00
1257.69,2711.00
1259.74,2626.00
1261.79,2626.00
1263.84,2679.00
1265.89,2627.00
1267.93,2594.00
1269.98,2605.00
1272.02,2616.00
1274.06,2636.00
1276.10,2626.00
1278.14,2552.00
1280.18,2447.00
1282.22,2552.00
1284.25,2626.00
1286.28,2595.00
1288.32,2457.00
1290.35,2499.00
1292.38,2488.00
1294.40,2415.00
1296.43,2499.00
1298.46,2583.00
1300.48,2605.00
1302.50,2573.00
1304.52,2510.00
1306.54,2531.00
1308.56,2542.00
1310.58,2520.00
1312.59,2488.00
1314.60,2563.00
1316.62,2583.00
1318.63,2584.00
1320.64,2446.00
1322.65,2468.00
1324.65,2552.00
1326.66,2542.00
1328.66,2594.00
1330.66,2616.00
1332.67,2584.00
1334.67,2541.00
1336.66,2552.00
1338.66,2520.00
1340.66,2510.00
1342.65,2520.00
1344.65,2457.00
1346.64,2456.00
1348.63,2467.00
1350.62,2457.00
1352.60,2447.00
1354.59,2447.00
1356.57,2457.00
1358.56,2446.00
1360.54,2446.00
1362.52,2457.00
1364.50,2425.00
1366.48,2404.00
1368.46,2340.00
1370.43,2319.00
1372.41,2362.00
1374.38,2309.00
1376.35,2309.00
1378.32,2362.00
1380.29,2287.00
1382.25,2329.00
1384.22,2329.00
1386.18,2372.00
1388.15,2330.00
1390.11,2309.00
1392.07,2298.00
1394.03,2330.00
1395.99,2372.00
1397.94,2276.00
1399.90,2245.00
1401.85,2234.00
1403.80,2319.00
1405.76,2361.00
1407.71,2330.00
1409.65,2298.00
1411.60,2255.00
1413.55,2224.00
1415.49,2202.00
1417.44,2213.00
1419.38,2202.00
1421.32,2192.00
1423.26,2139.00
1425.19,2108.00
1427.13,2150.00
1429.07,2213.00
1431.00,2160.00
1432.93,2075.00
1434.86,2129.00
1436.79,2171.00
1438.72,2149.00
1440.65,2160.00
1442.57,2128.00
1444.50,2097.00
1446.42,2203.00
1448.34,2171.00
1450.26,2075.00
1452.18,2139.00
1454.10,2139.00
1456.02,2075.00
1457.93,2096.00
1459.85,2128.00
1461.76,2065.00
1463.67,2086.00
1465.58,2129.00
1467.49,2118.00
1469.40,2107.00
1471.31,2033.00
1473.21,2033.00
1475.11,2075.00
1477.02,2118.00
1478.92,2033.00
1480.82,2064.00
1482.72,2033.00
1484.61,2012.00
1486.51,2023.00
1488.40,2044.00
1490.30,2022.00
1492.19,1949.00
1494.08,1959.00
1495.97,2033.00
1497.86,2022.00
1499.74,2012.00
1501.63,1948.00
1503.51,1980.00
1505.40,2012.00
1507.28,1938.00
1509.16,1937.00
1511.04,2001.00
1512.92,2034.00
1514.79,1970.00
1516.67,1948.00
1518.54,1938.00
1520.42,1906.00
1522.29,1906.00
1524.16,1949.00
1526.03,1874.00
1527.89,1906.00
1529.76,1906.00
1531.63,1927.00
1533.49,1970.00
1535.35,1906.00
1537.21,1864.00
1539.07,1916.00
1540.93,1885.00
1542.79,1885.00
1544.65,1896.00
1546.50,1864.00
1548.36,1853.00
1550.21,1853.00
1552.06,1895.00
1553.91,1853.00
1555.76,1801.00
1557.61,1906.00
1559.45,1895.00
1561.30,1821.00
1563.14,1779.00
1564.98,1821.00
1566.82,1800.00
1568.67,1789.00
1570.50,1779.00
1572.34,1832.00
1574.18,1864.00
1576.01,1822.00
1577.85,1800.00
1579.68,1779.00
1581.51,1726.00
1583.34,1747.00
1585.17,1758.00
1587.00,1695.00
1588.82,1705.00
1590.65,1757.00
1592.47,1779.00
1594.30,1726.00
1596.12,1757.00
1597.94,1673.00
1599.76,1684.00
1601.57,1663.00
1603.39,1694.00
1605.21,1716.00
1607.02,1652.00
1608.83,1673.00
1610.64,1631.00
1612.45,1620.00
1614.26,1589.00
1616.07,1652.00
1617.88,1694.00
1619.68,1694.00
1621.49,1663.00
1623.29,1621.00
1625.09,1621.00
1626.89,1621.00
1628.69,1557.00
1630.49,1578.00
1632.29,1610.00
1634.08,1567.00
1635.88,1567.00
1637.67,1568.00
1639.46,1621.00
1641.25,1588.00
1643.04,1621.00
1644.83,1641.00
1646.62,1641.00
1648.41,1609.00
1650.19,1546.00
1651.97,1567.00
1653.76,1546.00
1655.54,1493.00
1657.32,1546.00
1659.10,1525.00
1660.88,1578.00
1662.65,1546.00
1664.43,1567.00
1666.20,1546.00
1667.97,1483.00
1669.75,1514.00
1671.52,1483.00
1673.29,1493.00
1675.05,1568.00
1676.82,1567.00
1678.59,1515.00
1680.35,1451.00
1682.11,1440.00
1683.88,1398.00
1685.64,1450.00
1687.40,1472.00
1689.16,1440.00
1690.91,1398.00
1692.67,1482.00
1694.42,1462.00
1696.18,1430.00
1697.93,1461.00
1699.68,1430.00
1701.43,1450.00
1703.18,1408.00
1704.93,1334.00
1706.68,1376.00
1708.42,1387.00
1710.17,1377.00
1711.91,1398.00
1713.65,1345.00
1715.39,1334.00
1717.13,1314.00
1718.87,1313.00
1720.61,1356.00
1722.35,1377.00
1724.08,1313.00
1725.81,1271.00
1727.55,1270.00
1729.28,1270.00
1731.01,1292.00
1732.74,1271.00
1734.47,1292.00
1736.19,1303.00
1737.92,1292.00
1739.64,1334.00
1741.37,1377.00
1743.09,1313.00
1744.81,1281.00
1746.53,1313.00
1748.25,1303.00
1749.97,1303.00
1751.68,1302.00
1753.40,1271.00
1755.11,1249.00
1756.83,1292.00
1758.54,1250.00
1760.25,1250.00
1761.96,1218.00
1763.67,1228.00
1765.38,1292.00
1767.08,1292.00
1768.79,1250.00
1770.49,1260.00
1772.19,1249.00
1773.90,1217.00
1775.60,1186.00
1777.30,1249.00
1778.99,1228.00
1780.69,1250.00
1782.39,1228.00
1784.08,1228.00
1785.78,1197.00
1787.47,1186.00
1789.16,1207.00
1790.85,1175.00
1792.54,1165.00
1794.23,1165.00
1795.91,1186.00
1797.60,1144.00
1799.28,1154.00
1800.97,1228.00
1802.65,1218.00
1804.33,1186.00
1806.01,1175.00
1807.69,1186.00
1809.37,1175.00
1811.05,1186.00
1812.72,1186.00
1814.40,1239.00
1816.07,1196.00
1817.74,1133.00
1819.41,1123.00
1821.08,1123.00
1822.75,1186.00
1824.42,1217.00
1826.09,1186.00
1827.75,1123.00
1829.42,1122.00
1831.08,1101.00
1832.74,1122.00
1834.40,1101.00
1836.06,1091.00
1837.72,1069.00
1839.38,1080.00
1841.04,1133.00
1842.69,1165.00
1844.35,1091.00
1846.00,1069.00
1847.65,1091.00
1849.30,1091.00
1850.95,1016.00
1852.60,1037.00
1854.25,1080.00
1855.90,1143.00
1857.54,1144.00
1859.19,1070.00
1860.83,1037.00
1862.47,1038.00
1864.12,1059.00
1865.76,1080.00
1867.40,1112.00
1869.03,1091.00
1870.67,1059.00
1872.31,1091.00
1873.94,1144.00
1875.57,1133.00
1877.21,1122.00
1878.84,1101.00
1880.47,1048.00
1882.10,1017.00
1883.73,1059.00
1885.35,1049.00
1886.98,1070.00
1888.61,1038.00
1890.23,1006.00
1891.85,1027.00
1893.47,1006.00
1895.09,921.00
1896.71,953.00
1898.33,1038.00
1899.95,1027.00
1901.57,1027.00
1903.18,985.00
1904.80,953.00
1906.41,942.00
1908.02,985.00
1909.63,932.00
1911.24,932.00
1912.85,1037.00
1914.46,1038.00
1916.07,995.00
1917.67,953.00
1919.28,984.00
1920.88,975.00
1922.48,995.00
1924.08,985.00
1925.68,911.00
1927.28,932.00
1928.88,964.00
1930.48,953.00
1932.07,964.00
1933.67,890.00
1935.26,890.00
1936.86,869.00
1938.45,890.00
1940.04,911.00
1941.63,890.00
1943.22,879.00
1944.80,889.00
1946.39,921.00
1947.98,889.00
1949.56,900.00
1951.14,932.00
1952.73,879.00
1954.31,878.00
1955.89,942.00
1957.47,943.00
1959.05,943.00
1960.62,900.00
1962.20,890.00
1963.77,889.00
1965.35,879.00
1966.92,878.00
1968.49,911.00
1970.06,921.00
1971.63,857.00
1973.20,900.00
1974.77,932.00
1976.34,942.00
1977.90,900.00
1979.47,953.00
1981.03,879.00
1982.59,868.00
1984.15,847.00
1985.71,816.00
1987.27,857.00
1988.83,910.00
1990.39,858.00
1991.94,857.00
1993.50,858.00
1995.05,868.00
1996.61,879.00
1998.16,890.00
1999.71,879.00
2001.26,857.00
2002.81,869.00
2004.36,890.00
2005.91,848.00
2007.45,847.00
2009.00,826.00
2010.54,826.00
2012.08,890.00
2013.62,869.00
2015.17,805.00
2016.71,773.00
2018.24,847.00
2019.78,837.00
2021.32,847.00
2022.85,879.00
2024.39,805.00
2025.92,763.00
2027.46,804.00
2028.99,826.00
2030.52,805.00
2032.05,783.00
2033.58,763.00
2035.10,752.00
2036.63,741.00
2038.16,784.00
2039.68,752.00
2041.21,784.00
2042.73,826.00
2044.25,784.00
2045.77,762.00
2047.29,741.00
2048.81,773.00
2050.33,805.00
2051.84,805.00
2053.36,784.00
2054.87,741.00
2056.39,763.00
2057.90,795.00
2059.41,751.00
2060.92,763.00
2062.43,752.00
2063.94,731.00
2065.45,773.00
2066.95,794.00
2068.46,783.00
2069.96,784.00
2071.47,699.00
2072.97,656.00
2074.47,742.00
2075.97,720.00
2077.47,730.00
2078.97,720.00
2080.47,677.00
2081.96,710.00
2083.46,730.00
2084.95,710.00
2086.45,720.00
2087.94,741.00
2089.43,783.00
2090.92,763.00
2092.41,710.00
2093.90,731.00
2095.39,763.00
2096.88,710.00
2098.36,677.00
2099.85,625.00
2101.33,646.00
2102.81,731.00
2104.30,699.00
2105.78,667.00
2107.26,646.00
2108.74,699.00
2110.21,646.00
2111.69,635.00
2113.17,689.00
2114.64,656.00
2116.12,636.00
2117.59,689.00
2119.06,656.00
2120.53,635.00
2122.00,646.00
2123.47,667.00
2124.94,625.00
2126.41,593.00
2127.87,614.00
2129.34,646.00
2130.80,624.00
2132.27,625.00
2133.73,656.00
2135.19,625.00
2136.65,614.00
2138.11,667.00
2139.57,678.00
2141.03,625.00
2142.48,615.00
2143.94,646.00
2145.39,656.00
2146.85,646.00
2148.30,593.00
2149.75,646.00
2151.20,677.00
2152.65,667.00
2154.10,614.00
2155.55,625.00
2157.00,635.00
2158.44,572.00
2159.89,614.00
2161.33,667.00
2162.78,657.00
2164.22,582.00
2165.66,561.00
2167.10,646.00
2168.54,583.00
2169.98,593.00
2171.42,604.00
2172.85,636.00
2174.29,593.00
2175.72,614.00
2177.16,529.00
2178.59,572.00
2180.02,603.00
2181.45,615.00
2182.88,583.00
2184.31,562.00
2185.74,593.00
2187.17,593.00
2188.59,583.00
2190.02,604.00
2191.44,593.00
2192.87,603.00
2194.29,582.00
2195.71,572.00
2197.13,603.00
2198.55,582.00
2199.97,551.00
2201.39,562.00
2202.81,572.00
2204.22,615.00
2205.64,572.00
2207.05,529.00
2208.46,551.00
2209.88,572.00
2211.29,593.00
2212.70,593.00
2214.11,582.00
2215.52,529.00
2216.92,530.00
2218.33,593.00
2219.74,582.00
2221.14,519.00
2222.54,487.00
2223.95,551.00
2225.35,562.00
2226.75,572.00
2228.15,530.00
2229.55,519.00
2230.95,530.00
2232.35,572.00
2233.74,540.00
2235.14,509.00
2236.53,529.00
2237.93,529.00
2239.32,540.00
2240.71,518.00
2242.10,466.00
2243.49,519.00
2244.88,487.00
2246.27,508.00
2247.66,477.00
2249.04,466.00
2250.43,529.00
2251.81,487.00
2253.20,530.00
2254.58,571.00
2255.96,498.00
2257.34,434.00
2258.72,455.00
2260.10,529.00
2261.48,508.00
2262.86,530.00
2264.23,519.00
2265.61,508.00
2266.98,487.00
2268.36,477.00
2269.73,561.00
2271.10,497.00
2272.47,434.00
2273.84,466.00
2275.21,466.00
2276.58,445.00
2277.95,455.00
2279.31,487.00
2280.68,413.00
2282.05,413.00
2283.41,444.00
2284.77,444.00
2286.13,477.00
2287.50,455.00
2288.86,477.00
2290.22,487.00
2291.57,498.00
2292.93,487.00
2294.29,455.00
2295.64,487.00
2297.00,487.00
2298.35,487.00
2299.71,466.00
2301.06,444.00
2302.41,444.00
2303.76,477.00
2305.11,465.00
2306.46,423.00
2307.81,413.00
2309.15,487.00
2310.50,456.00
2311.84,413.00
2313.19,444.00
2314.53,466.00
2315.87,424.00
2317.22,487.00
2318.56,456.00
2319.90,466.00
2321.24,413.00
2322.57,360.00
2323.91,434.00
2325.25,402.00
2326.58,392.00
2327.92,424.00
2329.25,392.00
2330.58,403.00
2331.91,382.00
2333.25,381.00
2334.58,402.00
2335.90,434.00
2337.23,466.00
2338.56,445.00
2339.89,444.00
2341.21,413.00
2342.54,413.00
2343.86,381.00
2345.19,423.00
2346.51,403.00
2347.83,413.00
2349.15,476.00
2350.47,423.00
2351.79,423.00
2353.11,402.00
2354.42,392.00
2355.74,392.00
2357.06,413.00
2358.37,392.00
2359.68,381.00
2361.00,424.00
2362.31,403.00
2363.62,360.00
2364.93,339.00
2366.24,339.00
2367.55,360.00
2368.86,403.00
2370.16,381.00
2371.47,371.00
2372.77,349.00
2374.08,296.00
2375.38,317.00
2376.68,350.00
2377.98,338.00
2379.29,381.00
2380.59,402.00
2381.88,381.00
2383.18,382.00
2384.48,391.00
2385.78,381.00
2387.07,413.00
2388.37,424.00
2389.66,382.00
2390.95,339.00
2392.25,403.00
2393.54,381.00
2394.83,360.00
2396.12,371.00
2397.41,424.00
2398.70,382.00
2399.98,402.00
2401.27,423.00
2402.55,339.00
2403.84,317.00
2405.12,338.00
2406.41,370.00
2407.69,360.00
2408.97,382.00
2410.25,381.00
2411.53,349.00
2412.81,381.00
2414.09,371.00
2415.36,360.00
2416.64,317.00
2417.91,403.00
2419.19,339.00
2420.46,318.00
2421.74,349.00
2423.01,360.00
2424.28,349.00
2425.55,360.00
2426.82,360.00
2428.09,338.00
2429.36,381.00
2430.62,370.00
2431.89,339.00
2433.15,338.00
2434.42,349.00
2435.68,328.00
2436.94,318.00
2438.21,318.00
2439.47,339.00
2440.73,339.00
2441.99,338.00
2443.25,296.00
2444.51,297.00
2445.76,297.00
2447.02,329.00
2448.27,339.00
2449.53,339.00
2450.78,317.00
2452.03,328.00
2453.29,307.00
2454.54,297.00
2455.79,286.00
2457.04,276.00
2458.29,264.00
2459.54,275.00
2460.78,276.00
2462.03,318.00
2463.27,318.00
2464.52,339.00
2465.76,297.00
2467.01,275.00
2468.25,318.00
2469.49,329.00
2470.73,329.00
2471.97,307.00
2473.21,297.00
2474.45,264.00
2475.69,276.00
2476.92,339.00
2478.16,338.00
2479.39,297.00
2480.63,286.00
2481.86,276.00
2483.09,233.00
2484.32,297.00
2485.56,297.00
2486.79,275.00
2488.02,329.00
2489.24,317.00
2490.47,286.00
2491.70,297.00
2492.92,296.00
2494.15,275.00
2495.37,254.00
2496.60,254.00
2497.82,297.00
2499.04,276.00
2500.26,223.00
2501.48,254.00
2502.70,297.00
2503.92,233.00
2505.14,296.00
2506.36,318.00
2507.58,297.00
2508.79,254.00
2510.01,307.00
2511.22,254.00
2512.43,254.00
2513.64,286.00
2514.86,254.00
2516.07,254.00
2517.28,307.00
2518.49,286.00
2519.70,254.00
2520.90,233.00
2522.11,276.00
2523.32,285.00
2524.52,244.00
2525.73,233.00
2526.93,275.00
2528.13,297.00
2529.33,212.00
2530.54,233.00
2531.74,255.00
2532.94,265.00
2534.14,296.00
2535.33,307.00
2536.53,254.00
2537.73,233.00
2538.92,233.00
2540.12,212.00
2541.31,233.00
2542.51,244.00
2543.70,233.00
2544.89,244.00
2546.08,255.00
2547.27,265.00
2548.46,297.00
2549.65,276.00
2550.84,296.00
2552.03,285.00
2553.21,254.00
2554.40,254.00
2555.58,233.00
2556.77,222.00
2557.95,201.00
2559.13,233.00
2560.31,233.00
2561.50,222.00
2562.68,190.00
2563.85,211.00
2565.03,223.00
2566.21,233.00
2567.39,243.00
2568.56,233.00
2569.74,265.00
2570.91,233.00
2572.09,191.00
2573.26,212.00
2574.43,254.00
2575.61,244.00
2576.78,254.00
2577.95,264.00
2579.12,233.00
2580.29,244.00
2581.45,201.00
2582.62,202.00
2583.79,233.00
2584.95,233.00
2586.12,190.00
2587.28,222.00
2588.44,159.00
2589.61,180.00
2590.77,212.00
2591.93,244.00
2593.09,201.00
2594.25,201.00
2595.41,212.00
2596.56,243.00
2597.72,233.00
2598.88,223.00
2600.03,212.00
2601.19,222.00
2602.34,201.00
2603.50,190.00
2604.65,191.00
2605.80,191.00
2606.95,233.00
2608.10,233.00
2609.25,233.00
2610.40,212.00
2611.55,212.00
2612.70,211.00
2613.84,223.00
2614.99,170.00
2616.13,190.00
2617.28,180.00
2618.42,180.00
2619.56,190.00
2620.71,212.00
2621.85,212.00
2622.99,180.00
2624.13,180.00
2625.27,212.00
2626.40,170.00
2627.54,149.00
2628.68,180.00
2629.81,180.00
2630.95,170.00
2632.08,211.00
2633.22,191.00
2634.35,180.00
2635.48,191.00
2636.61,212.00
2637.74,222.00
2638.87,212.00
2640.00,159.00
2641.13,201.00
2642.26,201.00
2643.39,180.00
2644.51,180.00
2645.64,180.00
2646.76,169.00
2647.89,190.00
2649.01,212.00
2650.13,212.00
2651.25,148.00
2652.38,138.00
2653.50,180.00
2654.62,191.00
2655.73,222.00
2656.85,254.00
2657.97,244.00
2659.09,201.00
2660.20,159.00
2661.32,201.00
2662.43,180.00
2663.55,148.00
2664.66,127.00
2665.77,138.00
2666.88,191.00
2667.99,180.00
2669.10,180.00
2670.21,191.00
2671.32,190.00
2672.43,191.00
2673.54,170.00
2674.64,212.00
2675.75,191.00
2676.85,191.00
2677.96,190.00
2679.06,191.00
2680.16,191.00
2681.26,170.00
2682.37,148.00
2683.47,149.00
2684.57,202.00
2685.66,222.00
2686.76,169.00
2687.86,170.00
2688.96,159.00
2690.05,128.00
2691.15,148.00
2692.24,170.00
2693.34,159.00
2694.43,212.00
2695.52,190.00
2696.62,159.00
2697.71,148.00
2698.80,128.00
2699.89,170.00
2700.98,180.00
2702.06,212.00
2703.15,212.00
2704.24,106.00
2705.32,190.00
2706.41,191.00
2707.49,148.00
2708.58,127.00
2709.66,180.00
2710.74,201.00
2711.83,170.00
2712.91,170.00
2713.99,170.00
2715.07,116.00
2716.15,137.00
2717.22,170.00
2718.30,148.00
2719.38,180.00
2720.45,169.00
2721.53,159.00
2722.60,190.00
2723.68,191.00
2724.75,170.00
2725.82,127.00
2726.89,138.00
2727.97,170.00
2729.04,149.00
2730.11,127.00
2731.17,148.00
2732.24,127.00
2733.31,117.00
2734.38,106.00
2735.44,137.00
2736.51,127.00
2737.57,117.00
2738.64,127.00
2739.70,127.00
2740.76,138.00
2741.82,127.00
2742.89,170.00
2743.95,137.00
2745.01,85.00
2746.07,106.00
2747.12,149.00
2748.18,138.00
2749.24,137.00
2750.29,106.00
2751.35,149.00
2752.40,170.00
2753.46,106.00
2754.51,117.00
2755.57,148.00
2756.62,159.00
2757.67,159.00
2758.72,138.00
2759.77,106.00
2760.82,42.00
2761.87,85.00
2762.91,137.00
2763.96,116.00
2765.01,96.00
2766.05,95.00
2767.10,127.00
2768.14,148.00
2769.19,170.00
2770.23,117.00
2771.27,169.00
2772.31,180.00
2773.35,159.00
2774.40,127.00
2775.43,64.00
2776.47,106.00
2777.51,169.00
2778.55,169.00
2779.59,190.00
2780.62,158.00
2781.66,169.00
2782.69,116.00
2783.73,148.00
2784.76,149.00
2785.79,127.00
2786.82,138.00
2787.85,148.00
2788.89,138.00
2789.92,128.00
2790.94,159.00
2791.97,148.00
2793.00,170.00
2794.03,149.00
2795.05,233.00
2796.08,191.00
2797.11,148.00
2798.13,170.00
2799.15,159.00
2800.18,127.00
2801.20,138.00
2802.22,85.00
2803.24,106.00
2804.26,106.00
2805.28,85.00
2806.30,138.00
2807.32,127.00
2808.34,84.00
2809.35,106.00
2810.37,127.00
2811.39,180.00
2812.40,202.00
2813.41,159.00
2814.43,96.00
2815.44,127.00
2816.45,106.00
2817.46,96.00
2818.48,127.00
2819.49,106.00
2820.49,106.00
2821.50,117.00
2822.51,85.00
2823.52,85.00
2824.53,148.00
2825.53,127.00
2826.54,85.00
2827.54,138.00
2828.55,106.00
2829.55,84.00
2830.55,63.00
2831.55,53.00
2832.56,64.00
2833.56,85.00
2834.56,106.00
2835.56,159.00
2836.56,137.00
2837.55,85.00
2838.55,43.00
2839.55,106.00
2840.54,127.00
2841.54,149.00
2842.53,84.00
2843.53,63.00
2844.52,148.00
2845.51,106.00
2846.51,96.00
2847.50,96.00
2848.49,96.00
2849.48,127.00
2850.47,116.00
2851.46,85.00
2852.45,85.00
2853.43,85.00
2854.42,85.00
2855.41,85.00
2856.39,95.00
2857.38,106.00
2858.36,95.00
2859.34,106.00
2860.33,127.00
2861.31,116.00
2862.29,117.00
2863.27,106.00
2864.25,95.00
2865.23,95.00
2866.21,74.00
2867.19,84.00
2868.17,127.00
2869.14,106.00
2870.12,117.00
2871.09,127.00
2872.07,127.00
2873.04,84.00
2874.02,106.00
2874.99,138.00
2875.96,74.00
2876.93,106.00
2877.91,127.00
2878.88,117.00
2879.85,84.00
2880.82,84.00
2881.78,117.00
2882.75,74.00
2883.72,52.00
2884.69,75.00
2885.65,127.00
2886.62,85.00
2887.58,84.00
2888.55,159.00
2889.51,159.00
2890.47,148.00
2891.43,84.00
2892.39,84.00
2893.36,106.00
2894.31,105.00
2895.27,95.00
2896.23,127.00
2897.19,63.00
2898.15,95.00
2899.11,85.00
2900.06,116.00
2901.02,159.00
2901.97,106.00
2902.93,85.00
2903.88,95.00
2904.83,148.00
2905.79,117.00
2906.74,84.00
2907.69,137.00
2908.64,106.00
2909.59,53.00
2910.54,52.00
2911.49,85.00
2912.43,53.00
2913.38,63.00
2914.33,53.00
2915.27,64.00
2916.22,63.00
2917.16,63.00
2918.11,85.00
2919.05,95.00
2919.99,127.00
2920.94,117.00
2921.88,42.00
2922.82,42.00
2923.76,64.00
2924.70,63.00
2925.64,85.00
2926.58,148.00
2927.51,116.00
2928.45,106.00
2929.39,106.00
2930.32,85.00
2931.26,64.00
2932.19,53.00
2933.13,106.00
2934.06,95.00
2934.99,116.00
2935.92,116.00
2936.86,84.00
2937.79,85.00
2938.72,106.00
2939.65,106.00
2940.57,74.00
2941.50,95.00
2942.43,117.00
2943.36,84.00
2944.28,84.00
2945.21,32.00
2946.13,53.00
2947.06,95.00
2947.98,42.00
2948.91,32.00
2949.83,74.00
2950.75,63.00
2951.67,106.00
2952.59,127.00
2953.51,148.00
2954.43,95.00
2955.35,105.00
2956.27,127.00
2957.19,96.00
2958.10,74.00
2959.02,63.00
2959.94,75.00
2960.85,95.00
2961.77,42.00
2962.68,53.00
2963.59,84.00
2964.51,42.00
2965.42,53.00
2966.33,74.00
2967.24,127.00
2968.15,74.00
2969.06,43.00
2969.97,53.00
2970.88,74.00
2971.78,63.00
2972.69,74.00
2973.60,53.00
2974.50,84.00
2975.41,42.00
2976.31,96.00
2977.22,105.00
2978.12,84.00
2979.02,63.00
2979.93,74.00
2980.83,106.00
2981.73,106.00
2982.63,84.00
2983.53,53.00
2984.43,21.00
2985.33,22.00
2986.22,64.00
2987.12,21.00
2988.02,42.00
2988.91,85.00
2989.81,85.00
2990.70,84.00
2991.60,106.00
2992.49,85.00
2993.38,64.00
2994.28,42.00
2995.17,85.00
2996.06,64.00
2996.95,85.00
2997.84,53.00
2998.73,21.00
2999.62,105.00
3000.51,106.00
3001.40,85.00
3002.28,53.00
3003.17,32.00
3004.05,84.00
3004.94,106.00
3005.82,84.00
3006.71,106.00
3007.59,64.00
3008.47,43.00
3009.36,53.00
3010.24,42.00
3011.12,85.00
3012.00,42.00
3012.88,0.00
3013.76,85.00
3014.64,106.00
3015.51,117.00
3016.39,84.00
3017.27,32.00
3018.14,42.00
3019.02,74.00
3019.89,10.00
3020.77,-22.00
3021.64,31.00
3022.52,74.00
3023.39,64.00
3024.26,85.00
3025.13,42.00
3026.00,42.00
3026.87,0.00
3027.74,10.00
3028.61,53.00
3029.48,84.00
3030.35,85.00
3031.21,105.00
3032.08,42.00
3032.95,52.00
3033.81,64.00
3034.68,53.00
3035.54,21.00
3036.40,74.00
3037.27,106.00
3038.13,85.00
3038.99,42.00
3039.85,42.00
3040.71,64.00
3041.57,53.00
3042.43,53.00
3043.29,32.00
3044.15,42.00
3045.01,32.00
3045.86,32.00
3046.72,85.00
3047.58,127.00
3048.43,116.00
3049.29,74.00
3050.14,74.00
3050.99,96.00
3051.85,106.00
3052.70,117.00
3053.55,53.00
3054.40,85.00
3055.25,85.00
3056.10,32.00
3056.95,63.00
3057.80,22.00
3058.65,32.00
3059.50,74.00
3060.34,106.00
3061.19,85.00
3062.04,64.00
3062.88,53.00
3063.73,31.00
3064.57,43.00
3065.42,10.00
3066.26,63.00
3067.10,85.00
3067.94,84.00
3068.78,21.00
3069.63,42.00
3070.47,32.00
3071.31,10.00
3072.14,-63.00
3072.98,-43.00
3073.82,0.00
3074.66,10.00
3075.49,11.00
3076.33,64.00
3077.17,21.00
3078.00,21.00
3078.83,42.00
3079.67,53.00
3080.50,22.00
3081.33,21.00
3082.17,0.00
3083.00,21.00
3083.83,42.00
3084.66,21.00
3085.49,0.00
3086.32,21.00
3087.15,32.00
3087.97,-11.00
3088.80,0.00
3089.63,-53.00
3090.46,32.00
3091.28,75.00
3092.11,53.00
3092.93,43.00
3093.75,22.00
3094.58,42.00
3095.40,31.00
3096.22,42.00
3097.05,42.00
3097.87,52.00
3098.69,85.00
3099.51,84.00
3100.33,-10.00
3101.15,21.00
3101.96,64.00
3102.78,32.00
3103.60,0.00
3104.42,11.00
3105.23,21.00
3106.05,43.00
3106.86,21.00
3107.68,21.00
3108.49,0.00
3109.30,31.00
3110.12,63.00
3110.93,32.00
3111.74,74.00
3112.55,95.00
3113.36,127.00
3114.17,32.00
3114.98,0.00
3115.79,84.00
3116.60,106.00
3117.40,64.00
3118.21,63.00
3119.02,21.00
3119.82,43.00
3120.63,43.00
3121.43,21.00
3122.24,21.00
3123.04,0.00
3123.84,32.00
3124.65,11.00
3125.45,-21.00
3126.25,-21.00
3127.05,43.00
3127.85,21.00
3128.65,0.00
3129.45,63.00
3130.25,106.00
3131.05,106.00
3131.84,85.00
3132.64,74.00
3133.44,63.00
3134.23,21.00
3135.03,31.00
3135.82,32.00
3136.62,31.00
3137.41,0.00
3138.20,21.00
3139.00,63.00
3139.79,63.00
3140.58,63.00
3141.37,43.00
3142.16,21.00
3142.95,21.00
3143.74,0.00
3144.53,0.00
3145.32,-22.00
3146.10,-43.00
3146.89,43.00
3147.68,74.00
3148.46,74.00
3149.25,106.00
3150.03,85.00
3150.82,-31.00
3151.60,-10.00
3152.38,0.00
3153.17,0.00
3153.95,43.00
3154.73,85.00
3155.51,64.00
3156.29,0.00
3157.07,10.00
3157.85,42.00
3158.63,43.00
3159.41,53.00
3160.18,42.00
3160.96,-10.00
3161.74,-21.00
3162.51,-10.00
3163.29,-21.00
3164.06,10.00
3164.84,11.00
3165.61,21.00
3166.38,21.00
3167.16,42.00
3167.93,32.00
3168.70,42.00
3169.47,32.00
3170.24,0.00
3171.01,-53.00
3171.78,-22.00
3172.55,-21.00
3173.32,53.00
3174.09,106.00
3174.85,21.00
3175.62,0.00
3176.39,21.00
3177.15,42.00
3177.92,32.00
3178.68,21.00
3179.45,0.00
3180.21,-21.00
3180.97,0.00
3181.73,-10.00
3182.50,-42.00
3183.26,-21.00
3184.02,21.00
3184.78,42.00
3185.54,63.00
3186.30,21.00
3187.05,43.00
3187.81,32.00
3188.57,11.00
3189.33,64.00
3190.08,42.00
3190.84,-32.00
3191.59,-64.00
3192.35,10.00
3193.10,63.00
3193.86,84.00
3194.61,85.00
3195.36,42.00
3196.12,53.00
3196.87,42.00
3197.62,42.00
3198.37,32.00
3199.12,43.00
3199.87,43.00
3200.62,21.00
3201.36,-21.00
3202.11,-42.00
3202.86,-11.00
3203.61,0.00
3204.35,21.00
3205.10,42.00
3205.84,21.00
3206.59,32.00
3207.33,21.00
3208.08,-21.00
3208.82,21.00
3209.56,-10.00
3210.30,-21.00
3211.05,22.00
3211.79,32.00
3212.53,42.00
3213.27,10.00
3214.01,10.00
3214.75,0.00
3215.48,32.00
3216.22,21.00
3216.96,0.00
3217.69,42.00
3218.43,11.00
3219.17,31.00
3219.90,31.00
3220.64,0.00
3221.37,-21.00
3222.10,0.00
3222.84,-11.00
3223.57,21.00
3224.30,64.00
3225.03,85.00
3225.76,53.00
3226.49,0.00
3227.22,21.00
3227.95,11.00
3228.68,11.00
3229.41,0.00
3230.14,42.00
3230.87,106.00
3231.59,74.00
3232.32,53.00
3233.04,53.00
3233.77,21.00
3234.49,0.00
3235.22,0.00
3235.94,11.00
3236.66,22.00
3237.39,0.00
3238.11,0.00
3238.83,43.00
3239.55,43.00
3240.27,10.00
3240.99,-21.00
3241.71,-11.00
3242.43,-42.00
3243.15,-21.00
3243.87,-11.00
3244.58,11.00
3245.30,21.00
3246.02,21.00
3246.73,75.00
3247.45,85.00
3248.16,21.00
3248.88,53.00
3249.59,64.00
3250.30,63.00
3251.01,63.00
3251.73,21.00
3252.44,11.00
3253.15,53.00
3253.86,32.00
3254.57,63.00
3255.28,-10.00
3255.99,-10.00
3256.70,0.00
3257.41,21.00
3258.11,21.00
3258.82,95.00
3259.53,127.00
3260.23,74.00
3260.94,74.00
3261.64,32.00
3262.35,-10.00
3263.05,-10.00
3263.76,11.00
3264.46,42.00
3265.16,74.00
3265.86,116.00
3266.56,53.00
3267.26,22.00
3267.97,0.00
3268.67,64.00
3269.36,31.00
3270.06,74.00
3270.76,85.00
3271.46,84.00
3272.16,0.00
3272.85,0.00
