RamanShift,Intensity
180.91,257.00
183.74,275.00
186.56,360.00
189.39,466.00
192.21,667.00
195.03,911.00
197.84,1238.00
200.66,1704.00
203.47,2235.00
206.28,2806.00
209.09,3272.00
211.89,3643.00
214.70,3960.00
217.50,4342.00
220.30,4712.00
223.10,4849.00
225.89,4924.00
228.69,5020.00
231.48,5189.00
234.27,5199.00
237.05,5093.00
239.84,5136.00
242.62,5168.00
245.40,5051.00
248.18,4914.00
250.96,4913.00
253.73,4923.00
256.51,4680.00
259.28,4416.00
262.05,4479.00
264.81,4521.00
267.58,4321.00
270.34,4289.00
273.10,4289.00
275.86,4214.00
278.61,4204.00
281.37,4140.00
284.12,4151.00
286.87,4141.00
289.62,4108.00
292.36,4120.00
295.11,4130.00
297.85,4066.00
300.59,4077.00
303.33,4119.00
306.06,4055.00
308.80,3971.00
311.53,4045.00
314.26,4119.00
316.99,4130.00
319.71,4055.00
322.44,4013.00
325.16,4024.00
327.88,3971.00
330.59,3981.00
333.31,4056.00
336.02,3981.00
338.73,3949.00
341.44,3918.00
344.15,3939.00
346.86,3971.00
349.56,3982.00
352.26,3971.00
354.96,3970.00
357.66,3865.00
360.35,3939.00
363.05,3875.00
365.74,3907.00
368.43,3993.00
371.12,4077.00
373.80,4056.00
376.48,4035.00
379.17,4013.00
381.85,3970.00
384.52,3961.00
387.20,3981.00
389.87,4066.00
392.54,4066.00
395.21,4034.00
397.88,4045.00
400.55,4098.00
403.21,4140.00
405.87,4193.00
408.53,4172.00
411.19,4045.00
413.84,3960.00
416.50,3929.00
419.15,3992.00
421.80,4013.00
424.45,3992.00
427.10,4024.00
429.74,4034.00
432.38,3992.00
435.02,4066.00
437.66,4119.00
440.30,4056.00
442.93,4003.00
445.56,4013.00
448.19,4014.00
450.82,3907.00
453.45,3981.00
456.07,4077.00
458.70,4045.00
461.32,4045.00
463.94,3971.00
466.55,3949.00
469.17,3992.00
471.78,4014.00
474.39,3982.00
477.00,3865.00
479.61,3992.00
482.22,4098.00
484.82,4055.00
487.42,3950.00
490.02,3918.00
492.62,3982.00
495.21,4024.00
497.81,3939.00
500.40,3886.00
502.99,3950.00
505.58,3961.00
508.17,3865.00
510.75,3918.00
513.33,3886.00
515.91,3844.00
518.49,3791.00
521.07,3760.00
523.65,3770.00
526.22,3781.00
528.79,3844.00
531.36,3960.00
533.93,3918.00
536.49,3791.00
539.06,3780.00
541.62,3812.00
544.18,3813.00
546.74,3833.00
549.30,3791.00
551.85,3781.00
554.40,3812.00
556.95,3823.00
559.50,3865.00
562.05,3833.00
564.59,3716.00
567.14,3590.00
569.68,3643.00
572.22,3716.00
574.76,3696.00
577.29,3653.00
579.83,3643.00
582.36,3643.00
584.89,3664.00
587.42,3717.00
589.95,3632.00
592.47,3547.00
594.99,3547.00
597.52,3537.00
600.04,3547.00
602.55,3463.00
605.07,3484.00
607.58,3548.00
610.09,3569.00
612.60,3526.00
615.11,3548.00
617.62,3600.00
620.12,3643.00
622.63,3484.00
625.13,3442.00
627.63,3473.00
630.13,3495.00
632.62,3547.00
635.12,3473.00
637.61,3410.00
640.10,3441.00
642.59,3494.00
645.07,3368.00
647.56,3357.00
650.04,3336.00
652.52,3368.00
655.00,3368.00
657.48,3356.00
659.96,3283.00
662.43,3209.00
664.90,3272.00
667.37,3389.00
669.84,3441.00
672.31,3399.00
674.78,3304.00
677.24,3261.00
679.70,3336.00
682.16,3325.00
684.62,3389.00
687.08,3325.00
689.53,3283.00
691.98,3230.00
694.43,3240.00
696.88,3229.00
699.33,3166.00
701.78,3114.00
704.22,3145.00
706.66,3166.00
709.10,3229.00
711.54,3262.00
713.98,3293.00
716.42,3208.00
718.85,3230.00
721.28,3347.00
723.71,3441.00
726.14,3505.00
728.57,3537.00
730.99,3527.00
733.41,3400.00
735.83,3315.00
738.25,3336.00
740.67,3293.00
743.09,3283.00
745.50,3124.00
747.91,3103.00
750.33,3039.00
752.73,2965.00
755.14,2880.00
757.55,2891.00
759.95,2954.00
762.35,2986.00
764.75,3018.00
767.15,2954.00
769.55,2859.00
771.95,2817.00
774.34,2944.00
776.73,2923.00
779.12,2838.00
781.51,2912.00
783.90,2934.00
786.28,2891.00
788.67,2901.00
791.05,2933.00
793.43,2923.00
795.80,2869.00
798.18,2838.00
800.56,2869.00
802.93,2859.00
805.30,2880.00
807.67,2849.00
810.04,2859.00
812.40,2806.00
814.77,2774.00
817.13,2816.00
819.49,2838.00
821.85,2743.00
824.21,2679.00
826.57,2732.00
828.92,2764.00
831.27,2732.00
833.63,2753.00
835.98,2679.00
838.32,2648.00
840.67,2700.00
843.01,2732.00
845.36,2658.00
847.70,2648.00
850.04,2637.00
852.37,2680.00
854.71,2616.00
857.05,2647.00
859.38,2636.00
861.71,2563.00
864.04,2563.00
866.37,2595.00
868.69,2552.00
871.02,2542.00
873.34,2574.00
875.66,2552.00
877.98,2541.00
880.30,2595.00
882.62,2637.00
884.93,2584.00
887.24,2552.00
889.55,2584.00
891.86,2563.00
894.17,2531.00
896.48,2509.00
898.78,2499.00
901.09,2488.00
903.39,2467.00
905.69,2436.00
907.99,2478.00
910.28,2499.00
912.58,2478.00
914.87,2563.00
917.16,2509.00
919.45,2446.00
921.74,2414.00
924.03,2425.00
926.31,2446.00
928.60,2457.00
930.88,2394.00
933.16,2340.00
935.44,2372.00
937.72,2403.00
939.99,2468.00
942.26,2393.00
944.54,2393.00
946.81,2414.00
949.08,2414.00
951.34,2457.00
953.61,2446.00
955.87,2414.00
958.14,2372.00
960.40,2298.00
962.66,2234.00
964.92,2372.00
967.17,2372.00
969.43,2340.00
971.68,2287.00
973.93,2223.00
976.18,2160.00
978.43,2223.00
980.68,2266.00
982.92,2277.00
985.17,2245.00
987.41,2213.00
989.65,2255.00
991.89,2319.00
994.12,2266.00
996.36,2202.00
998.59,2182.00
1000.83,2171.00
1003.06,2182.00
1005.29,2213.00
1007.51,2118.00
1009.74,2108.00
1011.97,2139.00
1014.19,2160.00
1016.41,2160.00
1018.63,2108.00
1020.85,2128.00
1023.07,2150.00
1025.28,2150.00
1027.49,2118.00
1029.71,2160.00
1031.92,2170.00
1034.13,2160.00
1036.33,2117.00
1038.54,2181.00
1040.74,2245.00
1042.95,2129.00
1045.15,2054.00
1047.35,2075.00
1049.55,2118.00
1051.74,2149.00
1053.94,2202.00
1056.13,2191.00
1058.32,2096.00
1060.51,2096.00
1062.70,2107.00
1064.89,2117.00
1067.08,2043.00
1069.26,1970.00
1071.44,2054.00
1073.63,2097.00
1075.81,2118.00
1077.98,2001.00
1080.16,1990.00
1082.34,1980.00
1084.51,2054.00
1086.68,2086.00
1088.85,2012.00
1091.02,1991.00
1093.19,1991.00
1095.35,1938.00
1097.52,1969.00
1099.68,2002.00
1101.84,1970.00
1104.00,2033.00
1106.16,2033.00
1108.32,1969.00
1110.48,1991.00
1112.63,1970.00
1114.78,2001.00
1116.93,1980.00
1119.08,1917.00
1121.23,1938.00
1123.38,1991.00
1125.52,1917.00
1127.67,1853.00
1129.81,1884.00
1131.95,1927.00
1134.09,1906.00
1136.22,1874.00
1138.36,1874.00
1140.50,1874.00
1142.63,1864.00
1144.76,1948.00
1146.89,1906.00
1149.02,1821.00
1151.15,1884.00
1153.27,1853.00
1155.40,1821.00
1157.52,1821.00
1159.64,1831.00
1161.76,1790.00
1163.88,1874.00
1165.99,1928.00
1168.11,1895.00
1170.22,1885.00
1172.34,1810.00
1174.45,1842.00
1176.56,1832.00
1178.66,1822.00
1180.77,1811.00
1182.88,1853.00
1184.98,1811.00
1187.08,1821.00
1189.18,1811.00
1191.28,1779.00
1193.38,1789.00
1195.47,1779.00
1197.57,1747.00
1199.66,1758.00
1201.75,1737.00
1203.85,1695.00
1205.93,1757.00
1208.02,1737.00
1210.11,1694.00
1212.19,1705.00
1214.28,1736.00
1216.36,1726.00
1218.44,1726.00
1220.52,1758.00
1222.59,1737.00
1224.67,1695.00
1226.74,1695.00
1228.82,1726.00
1230.89,1768.00
1232.96,1726.00
1235.03,1694.00
1237.10,1694.00
1239.16,1726.00
1241.23,1737.00
1243.29,1715.00
1245.35,1737.00
1247.41,1726.00
1249.47,1673.00
1251.53,1695.00
1253.58,1662.00
1255.64,1651.00
1257.69,1694.00
1259.74,1652.00
1261.79,1567.00
1263.84,1535.00
1265.89,1589.00
1267.93,1631.00
1269.98,1673.00
1272.02,1631.00
1274.06,1609.00
1276.10,1610.00
1278.14,1642.00
1280.18,1651.00
1282.22,1620.00
1284.25,1631.00
1286.28,1620.00
1288.32,1652.00
1290.35,1652.00
1292.38,1610.00
1294.40,1577.00
1296.43,1568.00
1298.46,1504.00
1300.48,1524.00
1302.50,1610.00
1304.52,1588.00
1306.54,1589.00
1308.56,1524.00
1310.58,1504.00
1312.59,1556.00
1314.60,1567.00
1316.62,1578.00
1318.63,1588.00
1320.64,1631.00
1322.65,1663.00
1324.65,1642.00
1326.66,1631.00
1328.66,1652.00
1330.66,1662.00
1332.67,1694.00
1334.67,1673.00
1336.66,1674.00
1338.66,1652.00
1340.66,1631.00
1342.65,1663.00
1344.65,1652.00
1346.64,1641.00
1348.63,1652.00
1350.62,1567.00
1352.60,1567.00
1354.59,1525.00
1356.57,1472.00
1358.56,1483.00
1360.54,1514.00
1362.52,1514.00
1364.50,1567.00
1366.48,1568.00
1368.46,1503.00
1370.43,1493.00
1372.41,1429.00
1374.38,1461.00
1376.35,1493.00
1378.32,1525.00
1380.29,1525.00
1382.25,1493.00
1384.22,1451.00
1386.18,1440.00
1388.15,1503.00
1390.11,1440.00
1392.07,1419.00
1394.03,1419.00
1395.99,1462.00
1397.94,1493.00
1399.90,1472.00
1401.85,1408.00
1403.80,1366.00
1405.76,1429.00
1407.71,1440.00
1409.65,1493.00
1411.60,1472.00
1413.55,1440.00
1415.49,1461.00
1417.44,1387.00
1419.38,1366.00
1421.32,1376.00
1423.26,1408.00
1425.19,1397.00
1427.13,1334.00
1429.07,1334.00
1431.00,1345.00
1432.93,1355.00
1434.86,1387.00
1436.79,1356.00
1438.72,1271.00
1440.65,1345.00
1442.57,1398.00
1444.50,1387.00
1446.42,1366.00
1448.34,1366.00
1450.26,1356.00
1452.18,1314.00
1454.10,1313.00
1456.02,1355.00
1457.93,1356.00
1459.85,1281.00
1461.76,1292.00
1463.67,1313.00
1465.58,1355.00
1467.49,1366.00
1469.40,1377.00
1471.31,1250.00
1473.21,1186.00
1475.11,1282.00
1477.02,1313.00
1478.92,1303.00
1480.82,1238.00
1482.72,1207.00
1484.61,1207.00
1486.51,1249.00
1488.40,1292.00
1490.30,1197.00
1492.19,1133.00
1494.08,1197.00
1495.97,1196.00
1497.86,1208.00
1499.74,1239.00
1501.63,1208.00
1503.51,1197.00
1505.40,1282.00
1507.28,1250.00
1509.16,1282.00
1511.04,1218.00
1512.92,1208.00
1514.79,1239.00
1516.67,1250.00
1518.54,1196.00
1520.42,1249.00
1522.29,1271.00
1524.16,1218.00
1526.03,1165.00
1527.89,1154.00
1529.76,1133.00
1531.63,1154.00
1533.49,1143.00
1535.35,1197.00
1537.21,1197.00
1539.07,1186.00
1540.93,1155.00
1542.79,1122.00
1544.65,1197.00
1546.50,1165.00
1548.36,1090.00
1550.21,1186.00
1552.06,1228.00
1553.91,1154.00
1555.76,1175.00
1557.61,1186.00
1559.45,1165.00
1561.30,1091.00
1563.14,1080.00
1564.98,1144.00
1566.82,1133.00
1568.67,1101.00
1570.50,1122.00
1572.34,1144.00
1574.18,1112.00
1576.01,1091.00
1577.85,1101.00
1579.68,1112.00
1581.51,1091.00
1583.34,1049.00
1585.17,1080.00
1587.00,1123.00
1588.82,1101.00
1590.65,1207.00
1592.47,1207.00
1594.30,1133.00
1596.12,1059.00
1597.94,1069.00
1599.76,1090.00
1601.57,1101.00
1603.39,1112.00
1605.21,1112.00
1607.02,1101.00
1608.83,1080.00
1610.64,1123.00
1612.45,1091.00
1614.26,1070.00
1616.07,1037.00
1617.88,1048.00
1619.68,1059.00
1621.49,1059.00
1623.29,1017.00
1625.09,1017.00
1626.89,1017.00
1628.69,985.00
1630.49,995.00
1632.29,974.00
1634.08,995.00
1635.88,964.00
1637.67,910.00
1639.46,942.00
1641.25,1006.00
1643.04,995.00
1644.83,985.00
1646.62,932.00
1648.41,879.00
1650.19,879.00
1651.97,921.00
1653.76,921.00
1655.54,943.00
1657.32,953.00
1659.10,995.00
1660.88,974.00
1662.65,985.00
1664.43,995.00
1666.20,932.00
1667.97,985.00
1669.75,953.00
1671.52,900.00
1673.29,900.00
1675.05,953.00
1676.82,942.00
1678.59,932.00
1680.35,889.00
1682.11,911.00
1683.88,932.00
1685.64,953.00
1687.40,974.00
1689.16,900.00
1690.91,847.00
1692.67,890.00
1694.42,911.00
1696.18,890.00
1697.93,910.00
1699.68,890.00
1701.43,837.00
1703.18,837.00
1704.93,869.00
1706.68,868.00
1708.42,900.00
1710.17,826.00
1711.91,805.00
1713.65,890.00
1715.39,837.00
1717.13,773.00
1718.87,837.00
1720.61,879.00
1722.35,879.00
1724.08,900.00
1725.81,879.00
1727.55,815.00
1729.28,815.00
1731.01,784.00
1732.74,773.00
1734.47,794.00
1736.19,762.00
1737.92,784.00
1739.64,784.00
1741.37,890.00
1743.09,869.00
1744.81,805.00
1746.53,795.00
1748.25,826.00
1749.97,816.00
1751.68,794.00
1753.40,804.00
1755.11,805.00
1756.83,742.00
1758.54,784.00
1760.25,794.00
1761.96,784.00
1763.67,783.00
1765.38,794.00
1767.08,815.00
1768.79,826.00
1770.49,837.00
1772.19,805.00
1773.90,805.00
1775.60,742.00
1777.30,784.00
1778.99,751.00
1780.69,731.00
1782.39,804.00
1784.08,742.00
1785.78,763.00
1787.47,752.00
1789.16,720.00
1790.85,784.00
1792.54,815.00
1794.23,752.00
1795.91,731.00
1797.60,763.00
1799.28,731.00
1800.97,710.00
1802.65,730.00
1804.33,710.00
1806.01,720.00
1807.69,720.00
1809.37,710.00
1811.05,678.00
1812.72,709.00
1814.40,752.00
1816.07,720.00
1817.74,741.00
1819.41,763.00
1821.08,710.00
1822.75,699.00
1824.42,646.00
1826.09,657.00
1827.75,720.00
1829.42,720.00
1831.08,699.00
1832.74,678.00
1834.40,689.00
1836.06,720.00
1837.72,709.00
1839.38,677.00
1841.04,678.00
1842.69,657.00
1844.35,720.00
1846.00,698.00
1847.65,657.00
1849.30,667.00
1850.95,646.00
1852.60,667.00
1854.25,731.00
1855.90,657.00
1857.54,625.00
1859.19,699.00
1860.83,677.00
1862.47,688.00
1864.12,699.00
1865.76,668.00
1867.40,667.00
1869.03,667.00
1870.67,699.00
1872.31,678.00
1873.94,625.00
1875.57,688.00
1877.21,667.00
1878.84,646.00
1880.47,614.00
1882.10,583.00
1883.73,614.00
1885.35,635.00
1886.98,593.00
1888.61,593.00
1890.23,656.00
1891.85,614.00
1893.47,667.00
1895.09,699.00
1896.71,635.00
1898.33,614.00
1899.95,615.00
1901.57,635.00
1903.18,657.00
1904.80,593.00
1906.41,593.00
1908.02,624.00
1909.63,625.00
1911.24,551.00
1912.85,551.00
1914.46,582.00
1916.07,604.00
1917.67,593.00
1919.28,593.00
1920.88,550.00
1922.48,541.00
1924.08,582.00
1925.68,593.00
1927.28,604.00
1928.88,604.00
1930.48,593.00
1932.07,572.00
1933.67,583.00
1935.26,572.00
1936.86,551.00
1938.45,561.00
1940.04,540.00
1941.63,519.00
1943.22,551.00
1944.80,582.00
1946.39,540.00
1947.98,572.00
1949.56,529.00
1951.14,530.00
1952.73,572.00
1954.31,582.00
1955.89,572.00
1957.47,550.00
1959.05,540.00
1960.62,529.00
1962.20,508.00
1963.77,508.00
1965.35,551.00
1966.92,529.00
1968.49,540.00
1970.06,572.00
1971.63,529.00
1973.20,508.00
1974.77,529.00
1976.34,551.00
1977.90,551.00
1979.47,529.00
1981.03,519.00
1982.59,540.00
1984.15,529.00
1985.71,509.00
1987.27,444.00
1988.83,508.00
1990.39,497.00
1991.94,508.00
1993.50,530.00
1995.05,487.00
1996.61,509.00
1998.16,519.00
1999.71,509.00
2001.26,487.00
2002.81,508.00
2004.36,509.00
2005.91,508.00
2007.45,519.00
2009.00,519.00
2010.54,529.00
2012.08,551.00
2013.62,561.00
2015.17,529.00
2016.71,551.00
2018.24,529.00
2019.78,508.00
2021.32,466.00
2022.85,476.00
2024.39,477.00
2025.92,498.00
2027.46,519.00
2028.99,519.00
2030.52,508.00
2032.05,508.00
2033.58,444.00
2035.10,466.00
2036.63,476.00
2038.16,562.00
2039.68,572.00
2041.21,540.00
2042.73,551.00
2044.25,509.00
2045.77,487.00
2047.29,487.00
2048.81,466.00
2050.33,508.00
2051.84,519.00
2053.36,508.00
2054.87,455.00
2056.39,477.00
2057.90,487.00
2059.41,477.00
2060.92,455.00
2062.43,423.00
2063.94,444.00
2065.45,455.00
2066.95,456.00
2068.46,466.00
2069.96,497.00
2071.47,487.00
2072.97,509.00
2074.47,477.00
2075.97,455.00
2077.47,444.00
2078.97,477.00
2080.47,465.00
2081.96,509.00
2083.46,497.00
2084.95,466.00
2086.45,402.00
2087.94,382.00
2089.43,423.00
2090.92,456.00
2092.41,466.00
2093.90,445.00
2095.39,466.00
2096.88,434.00
2098.36,423.00
2099.85,413.00
2101.33,403.00
2102.81,424.00
2104.30,381.00
2105.78,434.00
2107.26,403.00
2108.74,402.00
2110.21,424.00
2111.69,391.00
2113.17,339.00
2114.64,392.00
2116.12,434.00
2117.59,477.00
2119.06,456.00
2120.53,455.00
2122.00,466.00
2123.47,434.00
2124.94,371.00
2126.41,370.00
2127.87,424.00
2129.34,434.00
2130.80,423.00
2132.27,423.00
2133.73,424.00
2135.19,402.00
2136.65,392.00
2138.11,392.00
2139.57,329.00
2141.03,371.00
2142.48,423.00
2143.94,392.00
2145.39,412.00
2146.85,391.00
2148.30,370.00
2149.75,350.00
2151.20,360.00
2152.65,360.00
2154.10,402.00
2155.55,392.00
2157.00,371.00
2158.44,360.00
2159.89,381.00
2161.33,402.00
2162.78,381.00
2164.22,392.00
2165.66,423.00
2167.10,382.00
2168.54,318.00
2169.98,286.00
2171.42,318.00
2172.85,402.00
2174.29,360.00
2175.72,339.00
2177.16,403.00
2178.59,403.00
2180.02,402.00
2181.45,392.00
2182.88,328.00
2184.31,328.00
2185.74,402.00
2187.17,381.00
2188.59,360.00
2190.02,360.00
2191.44,360.00
2192.87,371.00
2194.29,338.00
2195.71,328.00
2197.13,349.00
2198.55,370.00
2199.97,381.00
2201.39,382.00
2202.81,360.00
2204.22,360.00
2205.64,391.00
2207.05,360.00
2208.46,391.00
2209.88,403.00
2211.29,402.00
2212.70,370.00
2214.11,349.00
2215.52,339.00
2216.92,318.00
2218.33,339.00
2219.74,329.00
2221.14,339.00
2222.54,382.00
2223.95,338.00
2225.35,307.00
2226.75,318.00
2228.15,349.00
2229.55,339.00
2230.95,297.00
2232.35,286.00
2233.74,286.00
2235.14,297.00
2236.53,286.00
2237.93,297.00
2239.32,328.00
2240.71,349.00
2242.10,339.00
2243.49,318.00
2244.88,307.00
2246.27,307.00
2247.66,296.00
2249.04,275.00
2250.43,233.00
2251.81,318.00
2253.20,339.00
2254.58,276.00
2255.96,254.00
2257.34,296.00
2258.72,317.00
2260.10,328.00
2261.48,297.00
2262.86,296.00
2264.23,286.00
2265.61,275.00
2266.98,233.00
2268.36,233.00
2269.73,254.00
2271.10,233.00
2272.47,254.00
2273.84,276.00
2275.21,297.00
2276.58,296.00
2277.95,296.00
2279.31,276.00
2280.68,296.00
2282.05,349.00
2283.41,244.00
2284.77,222.00
2286.13,296.00
2287.50,296.00
2288.86,307.00
2290.22,276.00
2291.57,297.00
2292.93,286.00
2294.29,244.00
2295.64,285.00
2297.00,318.00
2298.35,286.00
2299.71,264.00
2301.06,264.00
2302.41,265.00
2303.76,296.00
2305.11,254.00
2306.46,297.00
2307.81,276.00
2309.15,254.00
2310.50,265.00
2311.84,297.00
2313.19,297.00
2314.53,296.00
2315.87,254.00
2317.22,191.00
2318.56,222.00
2319.90,222.00
2321.24,233.00
2322.57,244.00
2323.91,254.00
2325.25,265.00
2326.58,255.00
2327.92,254.00
2329.25,244.00
2330.58,275.00
2331.91,255.00
2333.25,275.00
2334.58,297.00
2335.90,244.00
2337.23,265.00
2338.56,297.00
2339.89,276.00
2341.21,233.00
2342.54,254.00
2343.86,244.00
2345.19,264.00
2346.51,244.00
2347.83,212.00
2349.15,190.00
2350.47,212.00
2351.79,254.00
2353.11,254.00
2354.42,233.00
2355.74,233.00
2357.06,170.00
2358.37,265.00
2359.68,233.00
2361.00,233.00
2362.31,254.00
2363.62,233.00
2364.93,212.00
2366.24,212.00
2367.55,233.00
2368.86,212.00
2370.16,233.00
2371.47,233.00
2372.77,212.00
2374.08,212.00
2375.38,265.00
2376.68,233.00
2377.98,222.00
2379.29,180.00
2380.59,275.00
2381.88,243.00
2383.18,212.00
2384.48,191.00
2385.78,254.00
2387.07,233.00
2388.37,265.00
2389.66,211.00
2390.95,233.00
2392.25,254.00
2393.54,222.00
2394.83,233.00
2396.12,244.00
2397.41,212.00
2398.70,180.00
2399.98,170.00
2401.27,180.00
2402.55,223.00
2403.84,212.00
2405.12,255.00
2406.41,254.00
2407.69,254.00
2408.97,255.00
2410.25,254.00
2411.53,244.00
2412.81,254.00
2414.09,212.00
2415.36,180.00
2416.64,244.00
2417.91,233.00
2419.19,201.00
2420.46,212.00
2421.74,201.00
2423.01,212.00
2424.28,276.00
2425.55,233.00
2426.82,212.00
2428.09,233.00
2429.36,233.00
2430.62,212.00
2431.89,223.00
2433.15,233.00
2434.42,212.00
2435.68,201.00
2436.94,254.00
2438.21,254.00
2439.47,233.00
2440.73,254.00
2441.99,243.00
2443.25,202.00
2444.51,159.00
2445.76,159.00
2447.02,212.00
2448.27,212.00
2449.53,158.00
2450.78,191.00
2452.03,170.00
2453.29,138.00
2454.54,170.00
2455.79,180.00
2457.04,191.00
2458.29,191.00
2459.54,159.00
2460.78,170.00
2462.03,180.00
2463.27,211.00
2464.52,212.00
2465.76,191.00
2467.01,212.00
2468.25,212.00
2469.49,212.00
2470.73,190.00
2471.97,169.00
2473.21,191.00
2474.45,180.00
2475.69,191.00
2476.92,223.00
2478.16,212.00
2479.39,169.00
2480.63,191.00
2481.86,170.00
2483.09,159.00
2484.32,148.00
2485.56,201.00
2486.79,190.00
2488.02,212.00
2489.24,202.00
2490.47,138.00
2491.70,148.00
2492.92,169.00
2494.15,169.00
2495.37,190.00
2496.60,223.00
2497.82,191.00
2499.04,170.00
2500.26,170.00
2501.48,180.00
2502.70,191.00
2503.92,170.00
2505.14,116.00
2506.36,128.00
2507.58,170.00
2508.79,169.00
2510.01,212.00
2511.22,201.00
2512.43,190.00
2513.64,202.00
2514.86,201.00
2516.07,180.00
2517.28,170.00
2518.49,137.00
2519.70,169.00
2520.90,127.00
2522.11,148.00
2523.32,158.00
2524.52,170.00
2525.73,138.00
2526.93,149.00
2528.13,138.00
2529.33,170.00
2530.54,128.00
2531.74,138.00
2532.94,128.00
2534.14,159.00
2535.33,149.00
2536.53,170.00
2537.73,169.00
2538.92,159.00
2540.12,170.00
2541.31,170.00
2542.51,170.00
2543.70,170.00
2544.89,159.00
2546.08,180.00
2547.27,138.00
2548.46,170.00
2549.65,170.00
2550.84,191.00
2552.03,190.00
2553.21,148.00
2554.40,169.00
2555.58,190.00
2556.77,169.00
2557.95,105.00
2559.13,138.00
2560.31,148.00
2561.50,148.00
2562.68,170.00
2563.85,148.00
2565.03,180.00
2566.21,149.00
2567.39,127.00
2568.56,212.00
2569.74,202.00
2570.91,149.00
2572.09,159.00
2573.26,138.00
2574.43,138.00
2575.61,159.00
2576.78,170.00
2577.95,116.00
2579.12,96.00
2580.29,149.00
2581.45,148.00
2582.62,127.00
2583.79,127.00
2584.95,116.00
2586.12,85.00
2587.28,106.00
2588.44,127.00
2589.61,127.00
2590.77,127.00
2591.93,138.00
2593.09,148.00
2594.25,127.00
2595.41,117.00
2596.56,85.00
2597.72,127.00
2598.88,170.00
2600.03,148.00
2601.19,106.00
2602.34,106.00
2603.50,127.00
2604.65,148.00
2605.80,159.00
2606.95,148.00
2608.10,170.00
2609.25,148.00
2610.40,170.00
2611.55,159.00
2612.70,127.00
2613.84,106.00
2614.99,53.00
2616.13,64.00
2617.28,106.00
2618.42,95.00
2619.56,127.00
2620.71,170.00
2621.85,159.00
2622.99,127.00
2624.13,117.00
2625.27,127.00
2626.40,127.00
2627.54,106.00
2628.68,106.00
2629.81,148.00
2630.95,127.00
2632.08,85.00
2633.22,149.00
2634.35,117.00
2635.48,106.00
2636.61,127.00
2637.74,85.00
2638.87,63.00
2640.00,84.00
2641.13,138.00
2642.26,106.00
2643.39,106.00
2644.51,116.00
2645.64,138.00
2646.76,105.00
2647.89,95.00
2649.01,53.00
2650.13,64.00
2651.25,85.00
2652.38,95.00
2653.50,106.00
2654.62,106.00
2655.73,128.00
2656.85,106.00
2657.97,85.00
2659.09,63.00
2660.20,106.00
2661.32,127.00
2662.43,138.00
2663.55,148.00
2664.66,137.00
2665.77,106.00
2666.88,95.00
2667.99,106.00
2669.10,117.00
2670.21,148.00
2671.32,116.00
2672.43,74.00
2673.54,85.00
2674.64,96.00
2675.75,116.00
2676.85,148.00
2677.96,117.00
2679.06,116.00
2680.16,117.00
2681.26,96.00
2682.37,95.00
2683.47,106.00
2684.57,85.00
2685.66,106.00
2686.76,105.00
2687.86,85.00
2688.96,95.00
2690.05,74.00
2691.15,85.00
2692.24,106.00
2693.34,106.00
2694.43,127.00
2695.52,148.00
2696.62,84.00
2697.71,21.00
2698.80,64.00
2699.89,96.00
2700.98,85.00
2702.06,127.00
2703.15,106.00
2704.24,106.00
2705.32,95.00
2706.41,95.00
2707.49,127.00
2708.58,116.00
2709.66,74.00
2710.74,63.00
2711.83,85.00
2712.91,96.00
2713.99,138.00
2715.07,63.00
2716.15,95.00
2717.22,64.00
2718.30,84.00
2719.38,106.00
2720.45,85.00
2721.53,138.00
2722.60,127.00
2723.68,85.00
2724.75,42.00
2725.82,84.00
2726.89,95.00
2727.97,85.00
2729.04,85.00
2730.11,85.00
2731.17,84.00
2732.24,95.00
2733.31,85.00
2734.38,84.00
2735.44,85.00
2736.51,64.00
2737.57,64.00
2738.64,85.00
2739.70,84.00
2740.76,63.00
2741.82,85.00
2742.89,148.00
2743.95,74.00
2745.01,63.00
2746.07,43.00
2747.12,32.00
2748.18,53.00
2749.24,85.00
2750.29,85.00
2751.35,106.00
2752.40,95.00
2753.46,85.00
2754.51,64.00
2755.57,63.00
2756.62,95.00
2757.67,116.00
2758.72,53.00
2759.77,85.00
2760.82,84.00
2761.87,84.00
2762.91,106.00
2763.96,85.00
2765.01,85.00
2766.05,138.00
2767.10,148.00
2768.14,117.00
2769.19,64.00
2770.23,85.00
2771.27,106.00
2772.31,22.00
2773.35,52.00
2774.40,74.00
2775.43,32.00
2776.47,74.00
2777.51,84.00
2778.55,74.00
2779.59,127.00
2780.62,127.00
2781.66,85.00
2782.69,95.00
2783.73,85.00
2784.76,85.00
2785.79,84.00
2786.82,84.00
2787.85,85.00
2788.89,74.00
2789.92,64.00
2790.94,127.00
2791.97,117.00
2793.00,127.00
2794.03,74.00
2795.05,85.00
2796.08,74.00
2797.11,64.00
2798.13,85.00
2799.15,106.00
2800.18,127.00
2801.20,128.00
2802.22,106.00
2803.24,85.00
2804.26,74.00
2805.28,74.00
2806.30,106.00
2807.32,74.00
2808.34,74.00
2809.35,74.00
2810.37,64.00
2811.39,85.00
2812.40,85.00
2813.41,85.00
2814.43,95.00
2815.44,74.00
2816.45,85.00
2817.46,74.00
2818.48,43.00
2819.49,106.00
2820.49,117.00
2821.50,96.00
2822.51,64.00
2823.52,64.00
2824.53,64.00
2825.53,106.00
2826.54,106.00
2827.54,85.00
2828.55,85.00
2829.55,63.00
2830.55,21.00
2831.55,53.00
2832.56,21.00
2833.56,64.00
2834.56,74.00
2835.56,63.00
2836.56,95.00
2837.55,85.00
2838.55,106.00
2839.55,117.00
2840.54,84.00
2841.54,74.00
2842.53,63.00
2843.53,42.00
2844.52,85.00
2845.51,117.00
2846.51,64.00
2847.50,95.00
2848.49,127.00
2849.48,117.00
2850.47,105.00
2851.46,63.00
2852.45,42.00
2853.43,64.00
2854.42,84.00
2855.41,85.00
2856.39,85.00
2857.38,85.00
2858.36,64.00
2859.34,21.00
2860.33,52.00
2861.31,74.00
2862.29,106.00
2863.27,64.00
2864.25,106.00
2865.23,106.00
2866.21,85.00
2867.19,95.00
2868.17,74.00
2869.14,75.00
2870.12,74.00
2871.09,84.00
2872.07,21.00
2873.04,31.00
2874.02,53.00
2874.99,52.00
2875.96,43.00
2876.93,63.00
2877.91,74.00
2878.88,85.00
2879.85,63.00
2880.82,63.00
2881.78,85.00
2882.75,32.00
2883.72,52.00
2884.69,53.00
2885.65,74.00
2886.62,84.00
2887.58,74.00
2888.55,64.00
2889.51,21.00
2890.47,64.00
2891.43,106.00
2892.39,85.00
2893.36,74.00
2894.31,106.00
2895.27,84.00
2896.23,106.00
2897.19,63.00
2898.15,95.00
2899.11,106.00
2900.06,42.00
2901.02,95.00
2901.97,84.00
2902.93,105.00
2903.88,63.00
2904.83,63.00
2905.79,74.00
2906.74,85.00
2907.69,85.00
2908.64,10.00
2909.59,53.00
2910.54,85.00
2911.49,31.00
2912.43,52.00
2913.38,84.00
2914.33,85.00
2915.27,43.00
2916.22,32.00
2917.16,53.00
2918.11,32.00
2919.05,-11.00
2919.99,-11.00
2920.94,22.00
2921.88,0.00
2922.82,53.00
2923.76,106.00
2924.70,42.00
2925.64,21.00
2926.58,21.00
2927.51,11.00
2928.45,53.00
2929.39,42.00
2930.32,74.00
2931.26,74.00
2932.19,0.00
2933.13,53.00
2934.06,127.00
2934.99,64.00
2935.92,10.00
2936.86,32.00
2937.79,42.00
2938.72,53.00
2939.65,43.00
2940.57,0.00
2941.50,32.00
2942.43,32.00
2943.36,63.00
2944.28,32.00
2945.21,11.00
2946.13,21.00
2947.06,21.00
2947.98,10.00
2948.91,95.00
2949.83,96.00
2950.75,42.00
2951.67,43.00
2952.59,74.00
2953.51,32.00
2954.43,0.00
2955.35,-11.00
2956.27,0.00
2957.19,74.00
2958.10,42.00
2959.02,10.00
2959.94,53.00
2960.85,43.00
2961.77,53.00
2962.68,21.00
2963.59,0.00
2964.51,0.00
2965.42,-21.00
2966.33,21.00
2967.24,63.00
2968.15,43.00
2969.06,53.00
2969.97,64.00
2970.88,43.00
2971.78,42.00
2972.69,21.00
2973.60,0.00
2974.50,21.00
2975.41,42.00
2976.31,11.00
2977.22,-11.00
2978.12,-21.00
2979.02,0.00
2979.93,21.00
2980.83,21.00
2981.73,75.00
2982.63,21.00
2983.53,21.00
2984.43,21.00
2985.33,10.00
2986.22,53.00
2987.12,21.00
2988.02,11.00
2988.91,21.00
2989.81,0.00
2990.70,11.00
2991.60,0.00
2992.49,-11.00
2993.38,42.00
2994.28,64.00
2995.17,53.00
2996.06,11.00
2996.95,0.00
2997.84,53.00
2998.73,74.00
2999.62,52.00
3000.51,53.00
3001.40,42.00
3002.28,21.00
3003.17,-21.00
3004.05,-22.00
3004.94,10.00
3005.82,21.00
3006.71,53.00
3007.59,32.00
3008.47,10.00
3009.36,-11.00
3010.24,10.00
3011.12,32.00
3012.00,42.00
3012.88,42.00
3013.76,-21.00
3014.64,0.00
3015.51,43.00
3016.39,32.00
3017.27,31.00
3018.14,10.00
3019.02,0.00
3019.89,11.00
3020.77,42.00
3021.64,21.00
3022.52,53.00
3023.39,42.00
3024.26,22.00
3025.13,-21.00
3026.00,63.00
3026.87,95.00
3027.74,85.00
3028.61,21.00
3029.48,-42.00
3030.35,-22.00
3031.21,21.00
3032.08,42.00
3032.95,0.00
3033.81,10.00
3034.68,43.00
3035.54,21.00
3036.40,0.00
3037.27,10.00
3038.13,43.00
3038.99,21.00
3039.85,85.00
3040.71,64.00
3041.57,85.00
3042.43,64.00
3043.29,42.00
3044.15,64.00
3045.01,64.00
3045.86,0.00
3046.72,21.00
3047.58,42.00
3048.43,42.00
3049.29,31.00
3050.14,10.00
3050.99,0.00
3051.85,43.00
3052.70,22.00
3053.55,22.00
3054.40,85.00
3055.25,64.00
3056.10,31.00
3056.95,10.00
3057.80,11.00
3058.65,43.00
3059.50,32.00
3060.34,43.00
3061.19,32.00
3062.04,53.00
3062.88,21.00
3063.73,0.00
3064.57,11.00
3065.42,21.00
3066.26,0.00
3067.10,42.00
3067.94,116.00
3068.78,84.00
3069.63,21.00
3070.47,42.00
3071.31,21.00
3072.14,11.00
3072.98,53.00
3073.82,53.00
3074.66,-32.00
3075.49,-21.00
3076.33,32.00
3077.17,32.00
3078.00,11.00
3078.83,31.00
3079.67,0.00
3080.50,10.00
3081.33,-10.00
3082.17,10.00
3083.00,21.00
3083.83,-31.00
3084.66,-11.00
3085.49,0.00
3086.32,52.00
3087.15,21.00
3087.97,32.00
3088.80,31.00
3089.63,21.00
3090.46,64.00
3091.28,85.00
3092.11,85.00
3092.93,43.00
3093.75,0.00
3094.58,0.00
3095.40,42.00
3096.22,32.00
3097.05,11.00
3097.87,0.00
3098.69,0.00
3099.51,21.00
3100.33,-42.00
3101.15,-21.00
3101.96,21.00
3102.78,-32.00
3103.60,-32.00
3104.42,0.00
3105.23,11.00
3106.05,0.00
3106.86,0.00
3107.68,-53.00
3108.49,-32.00
3109.30,22.00
3110.12,10.00
3110.93,10.00
3111.74,32.00
3112.55,0.00
3113.36,32.00
3114.17,32.00
3114.98,42.00
3115.79,21.00
3116.60,0.00
3117.40,0.00
3118.21,-42.00
3119.02,0.00
3119.82,43.00
3120.63,32.00
3121.43,64.00
3122.24,53.00
3123.04,63.00
3123.84,53.00
3124.65,53.00
3125.45,74.00
3126.25,53.00
3127.05,31.00
3127.85,-10.00
3128.65,-53.00
3129.45,-85.00
3130.25,-22.00
3131.05,32.00
3131.84,11.00
3132.64,-43.00
3133.44,-32.00
3134.23,53.00
3135.03,63.00
3135.82,53.00
3136.62,0.00
3137.41,0.00
3138.20,52.00
3139.00,43.00
3139.79,42.00
3140.58,32.00
3141.37,32.00
3142.16,42.00
3142.95,-21.00
3143.74,21.00
3144.53,0.00
3145.32,-21.00
3146.10,-42.00
3146.89,0.00
3147.68,0.00
3148.46,-21.00
3149.25,0.00
3150.03,0.00
3150.82,-21.00
3151.60,-32.00
3152.38,21.00
3153.17,21.00
3153.95,52.00
3154.73,21.00
3155.51,11.00
3156.29,0.00
3157.07,32.00
3157.85,85.00
3158.63,75.00
3159.41,42.00
3160.18,0.00
3160.96,63.00
3161.74,21.00
3162.51,0.00
3163.29,11.00
3164.06,0.00
3164.84,-21.00
3165.61,-22.00
3166.38,-10.00
3167.16,11.00
3167.93,31.00
3168.70,0.00
3169.47,0.00
3170.24,42.00
3171.01,42.00
3171.78,11.00
3172.55,10.00
3173.32,0.00
3174.09,-21.00
3174.85,0.00
3175.62,0.00
3176.39,0.00
3177.15,21.00
3177.92,0.00
3178.68,21.00
3179.45,32.00
3180.21,64.00
3180.97,63.00
3181.73,-53.00
3182.50,-32.00
3183.26,-63.00
3184.02,-32.00
3184.78,32.00
3185.54,42.00
3186.30,42.00
3187.05,0.00
3187.81,-11.00
3188.57,53.00
3189.33,63.00
3190.08,32.00
3190.84,32.00
3191.59,0.00
3192.35,0.00
3193.10,43.00
3193.86,-22.00
3194.61,-32.00
3195.36,0.00
3196.12,0.00
3196.87,-10.00
3197.62,42.00
3198.37,21.00
3199.12,53.00
3199.87,42.00
3200.62,21.00
3201.36,-11.00
3202.11,0.00
3202.86,0.00
3203.61,31.00
3204.35,-10.00
3205.10,-21.00
3205.84,0.00
3206.59,21.00
3207.33,0.00
3208.08,-32.00
3208.82,-53.00
3209.56,-106.00
3210.30,21.00
3211.05,74.00
3211.79,42.00
3212.53,42.00
3213.27,32.00
3214.01,32.00
3214.75,0.00
3215.48,21.00
3216.22,21.00
3216.96,-11.00
3217.69,-42.00
3218.43,-75.00
3219.17,-32.00
3219.90,-32.00
3220.64,-53.00
3221.37,-31.00
3222.10,21.00
3222.84,22.00
3223.57,0.00
3224.30,-21.00
3225.03,-42.00
3225.76,11.00
3226.49,-22.00
3227.22,-21.00
3227.95,32.00
3228.68,22.00
3229.41,21.00
3230.14,0.00
3230.87,21.00
3231.59,-10.00
3232.32,-21.00
3233.04,11.00
3233.77,11.00
3234.49,0.00
3235.22,0.00
3235.94,53.00
3236.66,31.00
3237.39,-11.00
3238.11,-21.00
3238.83,53.00
3239.55,64.00
3240.27,21.00
3240.99,11.00
3241.71,0.00
3242.43,0.00
3243.15,11.00
3243.87,10.00
3244.58,11.00
3245.30,-11.00
3246.02,-10.00
3246.73,-53.00
3247.45,11.00
3248.16,22.00
3248.88,21.00
3249.59,-22.00
3250.30,31.00
3251.01,42.00
3251.73,22.00
3252.44,42.00
3253.15,10.00
3253.86,-21.00
3254.57,0.00
3255.28,0.00
3255.99,42.00
3256.70,22.00
3257.41,11.00
3258.11,0.00
3258.82,-11.00
3259.53,-74.00
3260.23,0.00
3260.94,0.00
3261.64,0.00
3262.35,43.00
3263.05,21.00
3263.76,0.00
3264.46,-53.00
3265.16,-53.00
3265.86,-53.00
3266.56,-64.00
3267.26,-21.00
3267.97,32.00
3268.67,21.00
3269.36,21.00
3270.06,32.00
3270.76,11.00
3271.46,0.00
3272.16,0.00
3272.85,0.00
