RamanShift,Intensity
180.91,320.00
183.74,392.00
186.56,614.00
189.39,773.00
192.21,1049.00
195.03,1514.00
197.84,2128.00
200.66,3008.00
203.47,3961.00
206.28,4923.00
209.09,5824.00
211.89,6755.00
214.70,7476.00
217.50,7963.00
220.30,8377.00
223.10,8535.00
225.89,8694.00
228.69,8863.00
231.48,9118.00
234.27,9265.00
237.05,9159.00
239.84,9085.00
242.62,9053.00
245.40,9127.00
248.18,9053.00
250.96,9096.00
253.73,8980.00
256.51,8916.00
259.28,8779.00
262.05,8567.00
264.81,8450.00
267.58,8577.00
270.34,8578.00
273.10,8450.00
275.86,8386.00
278.61,8418.00
281.37,8354.00
284.12,8439.00
286.87,8503.00
289.62,8493.00
292.36,8387.00
295.11,8397.00
297.85,8492.00
300.59,8418.00
303.33,8460.00
306.06,8482.00
308.80,8387.00
311.53,8397.00
314.26,8471.00
316.99,8439.00
319.71,8461.00
322.44,8429.00
325.16,8450.00
327.88,8482.00
330.59,8407.00
333.31,8524.00
336.02,8440.00
338.73,8259.00
341.44,8291.00
344.15,8312.00
346.86,8354.00
349.56,8408.00
352.26,8281.00
354.96,8281.00
357.66,8312.00
360.35,8344.00
363.05,8482.00
365.74,8471.00
368.43,8545.00
371.12,8652.00
373.80,8715.00
376.48,8800.00
379.17,8736.00
381.85,8673.00
384.52,8715.00
387.20,8906.00
389.87,8906.00
392.54,8831.00
395.21,8906.00
397.88,8937.00
400.55,8926.00
403.21,8979.00
405.87,8789.00
408.53,8757.00
411.19,8863.00
413.84,8905.00
416.50,8948.00
419.15,8906.00
421.80,8895.00
424.45,8704.00
427.10,8725.00
429.74,8810.00
432.38,8779.00
435.02,8810.00
437.66,8789.00
440.30,8842.00
442.93,8800.00
445.56,8768.00
448.19,8863.00
450.82,8948.00
453.45,8959.00
456.07,8853.00
458.70,8874.00
461.32,8990.00
463.94,9033.00
466.55,8852.00
469.17,8853.00
471.78,9054.00
474.39,8927.00
477.00,8789.00
479.61,8990.00
482.22,9118.00
484.82,8916.00
487.42,8842.00
490.02,8905.00
492.62,8821.00
495.21,8842.00
497.81,8820.00
500.40,8842.00
502.99,8863.00
505.58,8894.00
508.17,8810.00
510.75,8736.00
513.33,8811.00
515.91,8704.00
518.49,8747.00
521.07,8630.00
523.65,8599.00
526.22,8630.00
528.79,8652.00
531.36,8704.00
533.93,8652.00
536.49,8758.00
539.06,8853.00
541.62,8694.00
544.18,8631.00
546.74,8651.00
549.30,8620.00
551.85,8599.00
554.40,8620.00
556.95,8651.00
559.50,8673.00
562.05,8630.00
564.59,8620.00
567.14,8588.00
569.68,8493.00
572.22,8620.00
574.76,8704.00
577.29,8694.00
579.83,8599.00
582.36,8545.00
584.89,8609.00
587.42,8630.00
589.95,8503.00
592.47,8429.00
594.99,8440.00
597.52,8291.00
600.04,8270.00
602.55,8312.00
605.07,8281.00
607.58,8218.00
610.09,8186.00
612.60,8270.00
615.11,8354.00
617.62,8121.00
620.12,8069.00
622.63,8069.00
625.13,8069.00
627.63,8132.00
630.13,8090.00
632.62,7953.00
635.12,7953.00
637.61,8038.00
640.10,8080.00
642.59,8016.00
645.07,7899.00
647.56,7973.00
650.04,7994.00
652.52,7921.00
655.00,7847.00
657.48,7784.00
659.96,7762.00
662.43,7825.00
664.90,7857.00
667.37,7794.00
669.84,7847.00
672.31,7921.00
674.78,7804.00
677.24,7677.00
679.70,7783.00
682.16,7868.00
684.62,7857.00
687.08,7815.00
689.53,7846.00
691.98,7868.00
694.43,7889.00
696.88,7772.00
699.33,7646.00
701.78,7698.00
704.22,7751.00
706.66,7656.00
709.10,7646.00
711.54,7550.00
713.98,7539.00
716.42,7529.00
718.85,7625.00
721.28,7720.00
723.71,7730.00
726.14,7773.00
728.57,7826.00
730.99,7899.00
733.41,7878.00
735.83,7741.00
738.25,7677.00
740.67,7645.00
743.09,7476.00
745.50,7402.00
747.91,7381.00
750.33,7212.00
752.73,7211.00
755.14,7275.00
757.55,7095.00
759.95,7053.00
762.35,7222.00
764.75,7264.00
767.15,7254.00
769.55,7253.00
771.95,7095.00
774.34,6989.00
776.73,7095.00
779.12,7095.00
781.51,7084.00
783.90,7032.00
786.28,7010.00
788.67,6989.00
791.05,6957.00
793.43,7020.00
795.80,6999.00
798.18,6989.00
800.56,6946.00
802.93,6915.00
805.30,6946.00
807.67,6893.00
810.04,6915.00
812.40,6936.00
814.77,6851.00
817.13,6745.00
819.49,6809.00
821.85,6682.00
824.21,6661.00
826.57,6724.00
828.92,6650.00
831.27,6608.00
833.63,6576.00
835.98,6618.00
838.32,6682.00
840.67,6554.00
843.01,6417.00
845.36,6449.00
847.70,6545.00
850.04,6608.00
852.37,6449.00
854.71,6364.00
857.05,6438.00
859.38,6480.00
861.71,6439.00
864.04,6491.00
866.37,6470.00
868.69,6343.00
871.02,6343.00
873.34,6364.00
875.66,6333.00
877.98,6343.00
880.30,6290.00
882.62,6300.00
884.93,6322.00
887.24,6322.00
889.55,6332.00
891.86,6163.00
894.17,6152.00
896.48,6268.00
898.78,6332.00
901.09,6163.00
903.39,6216.00
905.69,6269.00
907.99,6131.00
910.28,6078.00
912.58,6185.00
914.87,6100.00
917.16,6046.00
919.45,6078.00
921.74,6152.00
924.03,6026.00
926.31,5930.00
928.60,6025.00
930.88,6057.00
933.16,5973.00
935.44,5920.00
937.72,5972.00
939.99,5973.00
942.26,5877.00
944.54,5792.00
946.81,5856.00
949.08,6004.00
951.34,5930.00
953.61,5750.00
955.87,5792.00
958.14,5845.00
960.40,5909.00
962.66,5898.00
964.92,5856.00
967.17,5782.00
969.43,5771.00
971.68,5793.00
973.93,5729.00
976.18,5665.00
978.43,5644.00
980.68,5623.00
982.92,5644.00
985.17,5591.00
987.41,5539.00
989.65,5538.00
991.89,5474.00
994.12,5421.00
996.36,5528.00
998.59,5517.00
1000.83,5443.00
1003.06,5442.00
1005.29,5474.00
1007.51,5422.00
1009.74,5368.00
1011.97,5401.00
1014.19,5359.00
1016.41,5369.00
1018.63,5369.00
1020.85,5464.00
1023.07,5379.00
1025.28,5358.00
1027.49,5496.00
1029.71,5496.00
1031.92,5368.00
1034.13,5443.00
1036.33,5369.00
1038.54,5252.00
1040.74,5284.00
1042.95,5347.00
1045.15,5284.00
1047.35,5209.00
1049.55,5232.00
1051.74,5231.00
1053.94,5199.00
1056.13,5220.00
1058.32,5263.00
1060.51,5252.00
1062.70,5147.00
1064.89,5083.00
1067.08,5040.00
1069.26,5115.00
1071.44,5231.00
1073.63,5220.00
1075.81,5220.00
1077.98,5135.00
1080.16,5051.00
1082.34,5083.00
1084.51,5040.00
1086.68,5072.00
1088.85,4966.00
1091.02,5008.00
1093.19,4988.00
1095.35,4945.00
1097.52,5008.00
1099.68,4977.00
1101.84,5020.00
1104.00,5009.00
1106.16,4956.00
1108.32,4903.00
1110.48,4881.00
1112.63,4903.00
1114.78,4840.00
1116.93,4850.00
1119.08,4903.00
1121.23,4860.00
1123.38,4818.00
1125.52,4797.00
1127.67,4744.00
1129.81,4744.00
1131.95,4659.00
1134.09,4638.00
1136.22,4723.00
1138.36,4796.00
1140.50,4892.00
1142.63,4808.00
1144.76,4723.00
1146.89,4734.00
1149.02,4713.00
1151.15,4734.00
1153.27,4648.00
1155.40,4574.00
1157.52,4659.00
1159.64,4733.00
1161.76,4627.00
1163.88,4691.00
1165.99,4733.00
1168.11,4649.00
1170.22,4490.00
1172.34,4522.00
1174.45,4542.00
1176.56,4521.00
1178.66,4553.00
1180.77,4564.00
1182.88,4564.00
1184.98,4490.00
1187.08,4458.00
1189.18,4532.00
1191.28,4563.00
1193.38,4511.00
1195.47,4458.00
1197.57,4437.00
1199.66,4479.00
1201.75,4564.00
1203.85,4596.00
1205.93,4563.00
1208.02,4543.00
1210.11,4479.00
1212.19,4426.00
1214.28,4480.00
1216.36,4500.00
1218.44,4522.00
1220.52,4500.00
1222.59,4405.00
1224.67,4373.00
1226.74,4426.00
1228.82,4479.00
1230.89,4521.00
1232.96,4458.00
1235.03,4342.00
1237.10,4310.00
1239.16,4310.00
1241.23,4310.00
1243.29,4289.00
1245.35,4394.00
1247.41,4342.00
1249.47,4310.00
1251.53,4321.00
1253.58,4267.00
1255.64,4309.00
1257.69,4257.00
1259.74,4246.00
1261.79,4226.00
1263.84,4235.00
1265.89,4268.00
1267.93,4268.00
1269.98,4267.00
1272.02,4247.00
1274.06,4204.00
1276.10,4183.00
1278.14,4066.00
1280.18,4055.00
1282.22,4076.00
1284.25,4034.00
1286.28,4045.00
1288.32,4077.00
1290.35,4067.00
1292.38,4066.00
1294.40,4130.00
1296.43,4023.00
1298.46,3918.00
1300.48,4013.00
1302.50,4088.00
1304.52,4077.00
1306.54,3982.00
1308.56,4045.00
1310.58,4098.00
1312.59,4056.00
1314.60,4034.00
1316.62,4055.00
1318.63,4130.00
1320.64,4098.00
1322.65,4077.00
1324.65,4161.00
1326.66,4183.00
1328.66,4130.00
1330.66,4077.00
1332.67,4088.00
1334.67,4034.00
1336.66,4055.00
1338.66,4162.00
1340.66,4162.00
1342.65,4172.00
1344.65,4056.00
1346.64,3992.00
1348.63,3886.00
1350.62,3844.00
1352.60,3886.00
1354.59,3865.00
1356.57,3907.00
1358.56,3897.00
1360.54,3887.00
1362.52,3897.00
1364.50,3886.00
1366.48,3929.00
1368.46,3875.00
1370.43,3823.00
1372.41,3844.00
1374.38,3844.00
1376.35,3801.00
1378.32,3865.00
1380.29,3950.00
1382.25,3907.00
1384.22,3823.00
1386.18,3813.00
1388.15,3844.00
1390.11,3749.00
1392.07,3717.00
1394.03,3759.00
1395.99,3801.00
1397.94,3770.00
1399.90,3770.00
1401.85,3706.00
1403.80,3717.00
1405.76,3727.00
1407.71,3674.00
1409.65,3696.00
1411.60,3643.00
1413.55,3632.00
1415.49,3579.00
1417.44,3600.00
1419.38,3685.00
1421.32,3569.00
1423.26,3495.00
1425.19,3558.00
1427.13,3600.00
1429.07,3547.00
1431.00,3505.00
1432.93,3547.00
1434.86,3569.00
1436.79,3526.00
1438.72,3569.00
1440.65,3526.00
1442.57,3421.00
1444.50,3431.00
1446.42,3495.00
1448.34,3495.00
1450.26,3452.00
1452.18,3463.00
1454.10,3474.00
1456.02,3462.00
1457.93,3495.00
1459.85,3463.00
1461.76,3474.00
1463.67,3473.00
1465.58,3473.00
1467.49,3388.00
1469.40,3357.00
1471.31,3357.00
1473.21,3314.00
1475.11,3346.00
1477.02,3399.00
1478.92,3388.00
1480.82,3282.00
1482.72,3262.00
1484.61,3272.00
1486.51,3219.00
1488.40,3240.00
1490.30,3293.00
1492.19,3336.00
1494.08,3325.00
1495.97,3293.00
1497.86,3251.00
1499.74,3240.00
1501.63,3251.00
1503.51,3251.00
1505.40,3240.00
1507.28,3209.00
1509.16,3219.00
1511.04,3188.00
1512.92,3123.00
1514.79,3124.00
1516.67,3198.00
1518.54,3261.00
1520.42,3156.00
1522.29,3124.00
1524.16,3188.00
1526.03,3198.00
1527.89,3209.00
1529.76,3176.00
1531.63,3081.00
1533.49,3114.00
1535.35,3134.00
1537.21,3135.00
1539.07,3060.00
1540.93,3113.00
1542.79,3050.00
1544.65,2997.00
1546.50,3082.00
1548.36,3124.00
1550.21,3082.00
1552.06,2965.00
1553.91,2955.00
1555.76,3029.00
1557.61,3092.00
1559.45,3071.00
1561.30,3081.00
1563.14,3018.00
1564.98,2965.00
1566.82,2965.00
1568.67,3050.00
1570.50,3060.00
1572.34,2997.00
1574.18,2996.00
1576.01,2954.00
1577.85,2986.00
1579.68,2997.00
1581.51,2965.00
1583.34,2944.00
1585.17,2880.00
1587.00,2859.00
1588.82,2891.00
1590.65,2880.00
1592.47,2838.00
1594.30,2816.00
1596.12,2827.00
1597.94,2859.00
1599.76,2848.00
1601.57,2827.00
1603.39,2827.00
1605.21,2775.00
1607.02,2764.00
1608.83,2796.00
1610.64,2859.00
1612.45,2753.00
1614.26,2722.00
1616.07,2817.00
1617.88,2807.00
1619.68,2753.00
1621.49,2658.00
1623.29,2658.00
1625.09,2753.00
1626.89,2732.00
1628.69,2701.00
1630.49,2754.00
1632.29,2732.00
1634.08,2669.00
1635.88,2626.00
1637.67,2627.00
1639.46,2711.00
1641.25,2626.00
1643.04,2583.00
1644.83,2616.00
1646.62,2669.00
1648.41,2647.00
1650.19,2711.00
1651.97,2669.00
1653.76,2626.00
1655.54,2562.00
1657.32,2552.00
1659.10,2542.00
1660.88,2552.00
1662.65,2562.00
1664.43,2605.00
1666.20,2562.00
1667.97,2520.00
1669.75,2562.00
1671.52,2573.00
1673.29,2584.00
1675.05,2542.00
1676.82,2509.00
1678.59,2510.00
1680.35,2489.00
1682.11,2425.00
1683.88,2404.00
1685.64,2467.00
1687.40,2435.00
1689.16,2383.00
1690.91,2404.00
1692.67,2435.00
1694.42,2435.00
1696.18,2372.00
1697.93,2308.00
1699.68,2319.00
1701.43,2319.00
1703.18,2361.00
1704.93,2404.00
1706.68,2351.00
1708.42,2340.00
1710.17,2372.00
1711.91,2319.00
1713.65,2308.00
1715.39,2277.00
1717.13,2213.00
1718.87,2266.00
1720.61,2309.00
1722.35,2361.00
1724.08,2351.00
1725.81,2245.00
1727.55,2256.00
1729.28,2277.00
1731.01,2245.00
1732.74,2192.00
1734.47,2182.00
1736.19,2234.00
1737.92,2266.00
1739.64,2234.00
1741.37,2266.00
1743.09,2224.00
1744.81,2118.00
1746.53,2160.00
1748.25,2128.00
1749.97,2171.00
1751.68,2075.00
1753.40,2055.00
1755.11,2118.00
1756.83,2171.00
1758.54,2192.00
1760.25,2139.00
1761.96,2118.00
1763.67,2107.00
1765.38,2161.00
1767.08,2171.00
1768.79,2160.00
1770.49,2171.00
1772.19,2161.00
1773.90,2161.00
1775.60,2128.00
1777.30,2055.00
1778.99,1969.00
1780.69,2033.00
1782.39,2075.00
1784.08,2001.00
1785.78,2076.00
1787.47,2076.00
1789.16,2054.00
1790.85,2012.00
1792.54,2055.00
1794.23,2065.00
1795.91,2033.00
1797.60,1969.00
1799.28,1938.00
1800.97,1916.00
1802.65,1991.00
1804.33,2001.00
1806.01,2075.00
1807.69,2097.00
1809.37,2033.00
1811.05,1970.00
1812.72,2002.00
1814.40,1959.00
1816.07,1937.00
1817.74,1970.00
1819.41,1991.00
1821.08,1938.00
1822.75,1927.00
1824.42,1937.00
1826.09,1896.00
1827.75,1885.00
1829.42,1949.00
1831.08,1938.00
1832.74,1917.00
1834.40,1864.00
1836.06,1885.00
1837.72,1885.00
1839.38,1895.00
1841.04,1896.00
1842.69,1843.00
1844.35,1801.00
1846.00,1800.00
1847.65,1832.00
1849.30,1822.00
1850.95,1811.00
1852.60,1843.00
1854.25,1896.00
1855.90,1884.00
1857.54,1863.00
1859.19,1864.00
1860.83,1800.00
1862.47,1800.00
1864.12,1832.00
1865.76,1800.00
1867.40,1790.00
1869.03,1821.00
1870.67,1800.00
1872.31,1843.00
1873.94,1811.00
1875.57,1811.00
1877.21,1842.00
1878.84,1822.00
1880.47,1769.00
1882.10,1758.00
1883.73,1705.00
1885.35,1715.00
1886.98,1726.00
1888.61,1758.00
1890.23,1694.00
1891.85,1652.00
1893.47,1694.00
1895.09,1684.00
1896.71,1642.00
1898.33,1663.00
1899.95,1705.00
1901.57,1736.00
1903.18,1652.00
1904.80,1620.00
1906.41,1652.00
1908.02,1673.00
1909.63,1715.00
1911.24,1715.00
1912.85,1726.00
1914.46,1737.00
1916.07,1663.00
1917.67,1588.00
1919.28,1631.00
1920.88,1663.00
1922.48,1610.00
1924.08,1663.00
1925.68,1599.00
1927.28,1588.00
1928.88,1546.00
1930.48,1525.00
1932.07,1620.00
1933.67,1631.00
1935.26,1557.00
1936.86,1514.00
1938.45,1514.00
1940.04,1620.00
1941.63,1567.00
1943.22,1482.00
1944.80,1504.00
1946.39,1504.00
1947.98,1578.00
1949.56,1599.00
1951.14,1557.00
1952.73,1503.00
1954.31,1493.00
1955.89,1514.00
1957.47,1535.00
1959.05,1503.00
1960.62,1493.00
1962.20,1514.00
1963.77,1514.00
1965.35,1525.00
1966.92,1525.00
1968.49,1483.00
1970.06,1483.00
1971.63,1472.00
1973.20,1472.00
1974.77,1504.00
1976.34,1514.00
1977.90,1482.00
1979.47,1515.00
1981.03,1461.00
1982.59,1440.00
1984.15,1461.00
1985.71,1462.00
1987.27,1450.00
1988.83,1450.00
1990.39,1461.00
1991.94,1419.00
1993.50,1408.00
1995.05,1461.00
1996.61,1483.00
1998.16,1451.00
1999.71,1440.00
2001.26,1451.00
2002.81,1409.00
2004.36,1366.00
2005.91,1356.00
2007.45,1419.00
2009.00,1419.00
2010.54,1387.00
2012.08,1419.00
2013.62,1419.00
2015.17,1398.00
2016.71,1419.00
2018.24,1377.00
2019.78,1440.00
2021.32,1440.00
2022.85,1409.00
2024.39,1409.00
2025.92,1387.00
2027.46,1366.00
2028.99,1377.00
2030.52,1356.00
2032.05,1366.00
2033.58,1377.00
2035.10,1366.00
2036.63,1356.00
2038.16,1408.00
2039.68,1376.00
2041.21,1335.00
2042.73,1366.00
2044.25,1356.00
2045.77,1281.00
2047.29,1313.00
2048.81,1292.00
2050.33,1334.00
2051.84,1302.00
2053.36,1324.00
2054.87,1356.00
2056.39,1366.00
2057.90,1324.00
2059.41,1303.00
2060.92,1281.00
2062.43,1271.00
2063.94,1260.00
2065.45,1281.00
2066.95,1302.00
2068.46,1260.00
2069.96,1217.00
2071.47,1260.00
2072.97,1291.00
2074.47,1228.00
2075.97,1186.00
2077.47,1239.00
2078.97,1207.00
2080.47,1186.00
2081.96,1176.00
2083.46,1196.00
2084.95,1207.00
2086.45,1239.00
2087.94,1207.00
2089.43,1186.00
2090.92,1197.00
2092.41,1207.00
2093.90,1176.00
2095.39,1165.00
2096.88,1186.00
2098.36,1143.00
2099.85,1207.00
2101.33,1165.00
2102.81,1123.00
2104.30,1123.00
2105.78,1143.00
2107.26,1144.00
2108.74,1154.00
2110.21,1133.00
2111.69,1112.00
2113.17,1112.00
2114.64,1101.00
2116.12,1123.00
2117.59,1122.00
2119.06,1143.00
2120.53,1133.00
2122.00,1112.00
2123.47,1091.00
2124.94,1133.00
2126.41,1144.00
2127.87,1102.00
2129.34,1102.00
2130.80,1155.00
2132.27,1112.00
2133.73,1112.00
2135.19,1133.00
2136.65,1070.00
2138.11,1016.00
2139.57,1017.00
2141.03,1048.00
2142.48,1049.00
2143.94,1059.00
2145.39,1049.00
2146.85,1017.00
2148.30,1038.00
2149.75,1080.00
2151.20,1048.00
2152.65,1006.00
2154.10,1038.00
2155.55,1059.00
2157.00,1038.00
2158.44,1027.00
2159.89,1069.00
2161.33,1101.00
2162.78,1091.00
2164.22,1038.00
2165.66,974.00
2167.10,985.00
2168.54,1017.00
2169.98,974.00
2171.42,1027.00
2172.85,1006.00
2174.29,1017.00
2175.72,995.00
2177.16,996.00
2178.59,1016.00
2180.02,1016.00
2181.45,1037.00
2182.88,996.00
2184.31,953.00
2185.74,953.00
2187.17,974.00
2188.59,1006.00
2190.02,963.00
2191.44,974.00
2192.87,1016.00
2194.29,975.00
2195.71,953.00
2197.13,995.00
2198.55,985.00
2199.97,995.00
2201.39,975.00
2202.81,889.00
2204.22,953.00
2205.64,984.00
2207.05,943.00
2208.46,953.00
2209.88,932.00
2211.29,942.00
2212.70,921.00
2214.11,932.00
2215.52,911.00
2216.92,900.00
2218.33,879.00
2219.74,879.00
2221.14,942.00
2222.54,932.00
2223.95,942.00
2225.35,995.00
2226.75,953.00
2228.15,911.00
2229.55,890.00
2230.95,932.00
2232.35,953.00
2233.74,922.00
2235.14,848.00
2236.53,858.00
2237.93,847.00
2239.32,890.00
2240.71,858.00
2242.10,869.00
2243.49,889.00
2244.88,890.00
2246.27,826.00
2247.66,826.00
2249.04,858.00
2250.43,857.00
2251.81,837.00
2253.20,847.00
2254.58,805.00
2255.96,794.00
2257.34,805.00
2258.72,805.00
2260.10,816.00
2261.48,837.00
2262.86,783.00
2264.23,763.00
2265.61,826.00
2266.98,847.00
2268.36,868.00
2269.73,847.00
2271.10,847.00
2272.47,804.00
2273.84,804.00
2275.21,815.00
2276.58,783.00
2277.95,762.00
2279.31,795.00
2280.68,794.00
2282.05,794.00
2283.41,795.00
2284.77,773.00
2286.13,784.00
2287.50,805.00
2288.86,794.00
2290.22,762.00
2291.57,741.00
2292.93,783.00
2294.29,815.00
2295.64,773.00
2297.00,763.00
2298.35,752.00
2299.71,762.00
2301.06,783.00
2302.41,773.00
2303.76,762.00
2305.11,763.00
2306.46,816.00
2307.81,763.00
2309.15,720.00
2310.50,709.00
2311.84,762.00
2313.19,730.00
2314.53,699.00
2315.87,688.00
2317.22,763.00
2318.56,752.00
2319.90,699.00
2321.24,741.00
2322.57,742.00
2323.91,762.00
2325.25,688.00
2326.58,635.00
2327.92,762.00
2329.25,752.00
2330.58,699.00
2331.91,741.00
2333.25,667.00
2334.58,656.00
2335.90,688.00
2337.23,678.00
2338.56,699.00
2339.89,720.00
2341.21,667.00
2342.54,678.00
2343.86,677.00
2345.19,678.00
2346.51,688.00
2347.83,699.00
2349.15,710.00
2350.47,731.00
2351.79,646.00
2353.11,677.00
2354.42,699.00
2355.74,667.00
2357.06,678.00
2358.37,635.00
2359.68,656.00
2361.00,646.00
2362.31,668.00
2363.62,720.00
2364.93,667.00
2366.24,699.00
2367.55,699.00
2368.86,657.00
2370.16,657.00
2371.47,646.00
2372.77,657.00
2374.08,678.00
2375.38,625.00
2376.68,604.00
2377.98,656.00
2379.29,646.00
2380.59,562.00
2381.88,614.00
2383.18,614.00
2384.48,603.00
2385.78,604.00
2387.07,582.00
2388.37,593.00
2389.66,646.00
2390.95,614.00
2392.25,604.00
2393.54,646.00
2394.83,572.00
2396.12,583.00
2397.41,582.00
2398.70,540.00
2399.98,551.00
2401.27,550.00
2402.55,593.00
2403.84,571.00
2405.12,603.00
2406.41,593.00
2407.69,562.00
2408.97,530.00
2410.25,572.00
2411.53,562.00
2412.81,551.00
2414.09,530.00
2415.36,519.00
2416.64,551.00
2417.91,572.00
2419.19,572.00
2420.46,572.00
2421.74,571.00
2423.01,615.00
2424.28,550.00
2425.55,540.00
2426.82,540.00
2428.09,540.00
2429.36,487.00
2430.62,562.00
2431.89,593.00
2433.15,572.00
2434.42,529.00
2435.68,508.00
2436.94,508.00
2438.21,508.00
2439.47,508.00
2440.73,508.00
2441.99,455.00
2443.25,519.00
2444.51,562.00
2445.76,551.00
2447.02,540.00
2448.27,519.00
2449.53,498.00
2450.78,508.00
2452.03,529.00
2453.29,561.00
2454.54,530.00
2455.79,497.00
2457.04,508.00
2458.29,487.00
2459.54,465.00
2460.78,477.00
2462.03,477.00
2463.27,530.00
2464.52,529.00
2465.76,477.00
2467.01,487.00
2468.25,456.00
2469.49,455.00
2470.73,498.00
2471.97,508.00
2473.21,529.00
2474.45,498.00
2475.69,455.00
2476.92,466.00
2478.16,508.00
2479.39,540.00
2480.63,540.00
2481.86,476.00
2483.09,487.00
2484.32,498.00
2485.56,476.00
2486.79,445.00
2488.02,424.00
2489.24,424.00
2490.47,455.00
2491.70,466.00
2492.92,445.00
2494.15,466.00
2495.37,508.00
2496.60,487.00
2497.82,456.00
2499.04,477.00
2500.26,466.00
2501.48,435.00
2502.70,456.00
2503.92,466.00
2505.14,413.00
2506.36,424.00
2507.58,445.00
2508.79,466.00
2510.01,434.00
2511.22,445.00
2512.43,424.00
2513.64,403.00
2514.86,402.00
2516.07,413.00
2517.28,402.00
2518.49,434.00
2519.70,444.00
2520.90,477.00
2522.11,455.00
2523.32,423.00
2524.52,381.00
2525.73,445.00
2526.93,402.00
2528.13,455.00
2529.33,435.00
2530.54,445.00
2531.74,434.00
2532.94,413.00
2534.14,413.00
2535.33,424.00
2536.53,466.00
2537.73,465.00
2538.92,434.00
2540.12,413.00
2541.31,434.00
2542.51,413.00
2543.70,350.00
2544.89,403.00
2546.08,424.00
2547.27,466.00
2548.46,465.00
2549.65,402.00
2550.84,392.00
2552.03,349.00
2553.21,360.00
2554.40,403.00
2555.58,381.00
2556.77,339.00
2557.95,360.00
2559.13,402.00
2560.31,381.00
2561.50,370.00
2562.68,338.00
2563.85,360.00
2565.03,434.00
2566.21,424.00
2567.39,403.00
2568.56,339.00
2569.74,318.00
2570.91,339.00
2572.09,381.00
2573.26,360.00
2574.43,371.00
2575.61,392.00
2576.78,371.00
2577.95,371.00
2579.12,402.00
2580.29,391.00
2581.45,413.00
2582.62,381.00
2583.79,382.00
2584.95,381.00
2586.12,381.00
2587.28,339.00
2588.44,317.00
2589.61,328.00
2590.77,307.00
2591.93,339.00
2593.09,371.00
2594.25,381.00
2595.41,381.00
2596.56,392.00
2597.72,318.00
2598.88,350.00
2600.03,360.00
2601.19,360.00
2602.34,339.00
2603.50,338.00
2604.65,360.00
2605.80,329.00
2606.95,339.00
2608.10,339.00
2609.25,318.00
2610.40,349.00
2611.55,360.00
2612.70,349.00
2613.84,381.00
2614.99,360.00
2616.13,317.00
2617.28,381.00
2618.42,360.00
2619.56,339.00
2620.71,317.00
2621.85,307.00
2622.99,349.00
2624.13,338.00
2625.27,317.00
2626.40,307.00
2627.54,339.00
2628.68,382.00
2629.81,329.00
2630.95,339.00
2632.08,296.00
2633.22,296.00
2634.35,307.00
2635.48,349.00
2636.61,318.00
2637.74,307.00
2638.87,276.00
2640.00,254.00
2641.13,297.00
2642.26,328.00
2643.39,360.00
2644.51,307.00
2645.64,307.00
2646.76,339.00
2647.89,317.00
2649.01,286.00
2650.13,297.00
2651.25,286.00
2652.38,297.00
2653.50,275.00
2654.62,286.00
2655.73,255.00
2656.85,297.00
2657.97,318.00
2659.09,264.00
2660.20,265.00
2661.32,307.00
2662.43,329.00
2663.55,382.00
2664.66,318.00
2665.77,254.00
2666.88,275.00
2667.99,275.00
2669.10,329.00
2670.21,307.00
2671.32,275.00
2672.43,275.00
2673.54,201.00
2674.64,233.00
2675.75,318.00
2676.85,297.00
2677.96,275.00
2679.06,265.00
2680.16,297.00
2681.26,265.00
2682.37,265.00
2683.47,286.00
2684.57,329.00
2685.66,328.00
2686.76,275.00
2687.86,286.00
2688.96,254.00
2690.05,233.00
2691.15,307.00
2692.24,296.00
2693.34,276.00
2694.43,254.00
2695.52,222.00
2696.62,275.00
2697.71,296.00
2698.80,276.00
2699.89,255.00
2700.98,254.00
2702.06,275.00
2703.15,222.00
2704.24,212.00
2705.32,233.00
2706.41,233.00
2707.49,254.00
2708.58,254.00
2709.66,296.00
2710.74,328.00
2711.83,264.00
2712.91,255.00
2713.99,244.00
2715.07,254.00
2716.15,243.00
2717.22,212.00
2718.30,201.00
2719.38,212.00
2720.45,254.00
2721.53,244.00
2722.60,233.00
2723.68,233.00
2724.75,202.00
2725.82,191.00
2726.89,222.00
2727.97,276.00
2729.04,264.00
2730.11,243.00
2731.17,254.00
2732.24,244.00
2733.31,212.00
2734.38,212.00
2735.44,243.00
2736.51,275.00
2737.57,201.00
2738.64,233.00
2739.70,265.00
2740.76,244.00
2741.82,191.00
2742.89,233.00
2743.95,201.00
2745.01,180.00
2746.07,212.00
2747.12,233.00
2748.18,265.00
2749.24,254.00
2750.29,190.00
2751.35,233.00
2752.40,233.00
2753.46,191.00
2754.51,212.00
2755.57,191.00
2756.62,190.00
2757.67,222.00
2758.72,265.00
2759.77,243.00
2760.82,201.00
2761.87,233.00
2762.91,243.00
2763.96,286.00
2765.01,233.00
2766.05,211.00
2767.10,254.00
2768.14,191.00
2769.19,190.00
2770.23,233.00
2771.27,233.00
2772.31,170.00
2773.35,159.00
2774.40,254.00
2775.43,254.00
2776.47,212.00
2777.51,191.00
2778.55,265.00
2779.59,254.00
2780.62,201.00
2781.66,212.00
2782.69,190.00
2783.73,170.00
2784.76,232.00
2785.79,212.00
2786.82,190.00
2787.85,212.00
2788.89,190.00
2789.92,201.00
2790.94,201.00
2791.97,201.00
2793.00,223.00
2794.03,180.00
2795.05,180.00
2796.08,180.00
2797.11,169.00
2798.13,180.00
2799.15,180.00
2800.18,169.00
2801.20,180.00
2802.22,170.00
2803.24,191.00
2804.26,211.00
2805.28,180.00
2806.30,191.00
2807.32,191.00
2808.34,212.00
2809.35,212.00
2810.37,191.00
2811.39,201.00
2812.40,170.00
2813.41,138.00
2814.43,191.00
2815.44,201.00
2816.45,149.00
2817.46,149.00
2818.48,169.00
2819.49,212.00
2820.49,201.00
2821.50,180.00
2822.51,212.00
2823.52,222.00
2824.53,170.00
2825.53,127.00
2826.54,169.00
2827.54,212.00
2828.55,212.00
2829.55,191.00
2830.55,211.00
2831.55,170.00
2832.56,190.00
2833.56,170.00
2834.56,180.00
2835.56,201.00
2836.56,201.00
2837.55,180.00
2838.55,169.00
2839.55,169.00
2840.54,181.00
2841.54,202.00
2842.53,149.00
2843.53,158.00
2844.52,148.00
2845.51,170.00
2846.51,191.00
2847.50,170.00
2848.49,148.00
2849.48,180.00
2850.47,191.00
2851.46,127.00
2852.45,106.00
2853.43,127.00
2854.42,148.00
2855.41,127.00
2856.39,85.00
2857.38,138.00
2858.36,170.00
2859.34,201.00
2860.33,190.00
2861.31,159.00
2862.29,127.00
2863.27,169.00
2864.25,180.00
2865.23,211.00
2866.21,116.00
2867.19,137.00
2868.17,148.00
2869.14,138.00
2870.12,149.00
2871.09,149.00
2872.07,170.00
2873.04,170.00
2874.02,116.00
2874.99,148.00
2875.96,148.00
2876.93,159.00
2877.91,106.00
2878.88,148.00
2879.85,127.00
2880.82,148.00
2881.78,128.00
2882.75,127.00
2883.72,180.00
2884.69,138.00
2885.65,148.00
2886.62,159.00
2887.58,191.00
2888.55,190.00
2889.51,190.00
2890.47,148.00
2891.43,170.00
2892.39,127.00
2893.36,95.00
2894.31,137.00
2895.27,137.00
2896.23,148.00
2897.19,158.00
2898.15,159.00
2899.11,159.00
2900.06,159.00
2901.02,170.00
2901.97,169.00
2902.93,148.00
2903.88,170.00
2904.83,106.00
2905.79,106.00
2906.74,127.00
2907.69,116.00
2908.64,127.00
2909.59,149.00
2910.54,159.00
2911.49,127.00
2912.43,137.00
2913.38,148.00
2914.33,169.00
2915.27,148.00
2916.22,138.00
2917.16,180.00
2918.11,116.00
2919.05,95.00
2919.99,148.00
2920.94,180.00
2921.88,170.00
2922.82,170.00
2923.76,170.00
2924.70,127.00
2925.64,127.00
2926.58,170.00
2927.51,159.00
2928.45,148.00
2929.39,159.00
2930.32,138.00
2931.26,128.00
2932.19,159.00
2933.13,95.00
2934.06,85.00
2934.99,95.00
2935.92,95.00
2936.86,127.00
2937.79,169.00
2938.72,190.00
2939.65,169.00
2940.57,169.00
2941.50,169.00
2942.43,117.00
2943.36,106.00
2944.28,95.00
2945.21,116.00
2946.13,137.00
2947.06,64.00
2947.98,85.00
2948.91,117.00
2949.83,117.00
2950.75,169.00
2951.67,170.00
2952.59,63.00
2953.51,63.00
2954.43,64.00
2955.35,85.00
2956.27,85.00
2957.19,74.00
2958.10,32.00
2959.02,21.00
2959.94,106.00
2960.85,127.00
2961.77,85.00
2962.68,127.00
2963.59,116.00
2964.51,95.00
2965.42,85.00
2966.33,117.00
2967.24,148.00
2968.15,116.00
2969.06,85.00
2969.97,95.00
2970.88,74.00
2971.78,85.00
2972.69,138.00
2973.60,116.00
2974.50,85.00
2975.41,127.00
2976.31,127.00
2977.22,191.00
2978.12,159.00
2979.02,106.00
2979.93,106.00
2980.83,95.00
2981.73,96.00
2982.63,74.00
2983.53,74.00
2984.43,84.00
2985.33,127.00
2986.22,127.00
2987.12,169.00
2988.02,149.00
2988.91,95.00
2989.81,85.00
2990.70,159.00
2991.60,127.00
2992.49,85.00
2993.38,85.00
2994.28,85.00
2995.17,106.00
2996.06,84.00
2996.95,64.00
2997.84,95.00
2998.73,95.00
2999.62,75.00
3000.51,95.00
3001.40,127.00
3002.28,137.00
3003.17,127.00
3004.05,96.00
3004.94,84.00
3005.82,85.00
3006.71,85.00
3007.59,64.00
3008.47,53.00
3009.36,85.00
3010.24,106.00
3011.12,84.00
3012.00,95.00
3012.88,137.00
3013.76,64.00
3014.64,53.00
3015.51,53.00
3016.39,53.00
3017.27,53.00
3018.14,53.00
3019.02,63.00
3019.89,85.00
3020.77,74.00
3021.64,84.00
3022.52,106.00
3023.39,106.00
3024.26,85.00
3025.13,42.00
3026.00,10.00
3026.87,53.00
3027.74,43.00
3028.61,74.00
3029.48,106.00
3030.35,53.00
3031.21,63.00
3032.08,64.00
3032.95,42.00
3033.81,42.00
3034.68,95.00
3035.54,85.00
3036.40,64.00
3037.27,21.00
3038.13,106.00
3038.99,149.00
3039.85,127.00
3040.71,85.00
3041.57,42.00
3042.43,63.00
3043.29,74.00
3044.15,21.00
3045.01,43.00
3045.86,74.00
3046.72,106.00
3047.58,106.00
3048.43,85.00
3049.29,84.00
3050.14,74.00
3050.99,85.00
3051.85,117.00
3052.70,74.00
3053.55,84.00
3054.40,117.00
3055.25,138.00
3056.10,74.00
3056.95,42.00
3057.80,74.00
3058.65,106.00
3059.50,85.00
3060.34,64.00
3061.19,64.00
3062.04,127.00
3062.88,74.00
3063.73,42.00
3064.57,106.00
3065.42,84.00
3066.26,74.00
3067.10,84.00
3067.94,42.00
3068.78,11.00
3069.63,63.00
3070.47,52.00
3071.31,63.00
3072.14,95.00
3072.98,74.00
3073.82,63.00
3074.66,85.00
3075.49,53.00
3076.33,95.00
3077.17,85.00
3078.00,85.00
3078.83,64.00
3079.67,42.00
3080.50,0.00
3081.33,0.00
3082.17,43.00
3083.00,64.00
3083.83,42.00
3084.66,53.00
3085.49,42.00
3086.32,74.00
3087.15,64.00
3087.97,63.00
3088.80,74.00
3089.63,84.00
3090.46,63.00
3091.28,85.00
3092.11,63.00
3092.93,53.00
3093.75,0.00
3094.58,21.00
3095.40,85.00
3096.22,32.00
3097.05,42.00
3097.87,64.00
3098.69,64.00
3099.51,22.00
3100.33,64.00
3101.15,85.00
3101.96,53.00
3102.78,63.00
3103.60,64.00
3104.42,21.00
3105.23,11.00
3106.05,43.00
3106.86,21.00
3107.68,21.00
3108.49,21.00
3109.30,32.00
3110.12,63.00
3110.93,42.00
3111.74,32.00
3112.55,21.00
3113.36,42.00
3114.17,53.00
3114.98,63.00
3115.79,63.00
3116.60,74.00
3117.40,85.00
3118.21,42.00
3119.02,53.00
3119.82,43.00
3120.63,85.00
3121.43,84.00
3122.24,43.00
3123.04,43.00
3123.84,63.00
3124.65,53.00
3125.45,105.00
3126.25,96.00
3127.05,42.00
3127.85,32.00
3128.65,64.00
3129.45,32.00
3130.25,64.00
3131.05,106.00
3131.84,64.00
3132.64,53.00
3133.44,-11.00
3134.23,-21.00
3135.03,53.00
3135.82,63.00
3136.62,64.00
3137.41,10.00
3138.20,63.00
3139.00,42.00
3139.79,42.00
3140.58,42.00
3141.37,32.00
3142.16,42.00
3142.95,21.00
3143.74,43.00
3144.53,84.00
3145.32,43.00
3146.10,11.00
3146.89,63.00
3147.68,53.00
3148.46,32.00
3149.25,0.00
3150.03,-22.00
3150.82,11.00
3151.60,85.00
3152.38,32.00
3153.17,21.00
3153.95,0.00
3154.73,-21.00
3155.51,11.00
3156.29,0.00
3157.07,85.00
3157.85,74.00
3158.63,22.00
3159.41,63.00
3160.18,117.00
3160.96,96.00
3161.74,85.00
3162.51,43.00
3163.29,64.00
3164.06,63.00
3164.84,21.00
3165.61,32.00
3166.38,42.00
3167.16,32.00
3167.93,32.00
3168.70,11.00
3169.47,0.00
3170.24,-42.00
3171.01,21.00
3171.78,63.00
3172.55,11.00
3173.32,42.00
3174.09,42.00
3174.85,63.00
3175.62,64.00
3176.39,0.00
3177.15,-21.00
3177.92,31.00
3178.68,64.00
3179.45,21.00
3180.21,31.00
3180.97,10.00
3181.73,42.00
3182.50,85.00
3183.26,64.00
3184.02,63.00
3184.78,63.00
3185.54,42.00
3186.30,85.00
3187.05,32.00
3187.81,0.00
3188.57,-10.00
3189.33,53.00
3190.08,85.00
3190.84,64.00
3191.59,22.00
3192.35,-21.00
3193.10,21.00
3193.86,0.00
3194.61,42.00
3195.36,64.00
3196.12,96.00
3196.87,64.00
3197.62,42.00
3198.37,43.00
3199.12,53.00
3199.87,42.00
3200.62,21.00
3201.36,0.00
3202.11,-21.00
3202.86,-21.00
3203.61,-22.00
3204.35,11.00
3205.10,43.00
3205.84,21.00
3206.59,-21.00
3207.33,11.00
3208.08,22.00
3208.82,21.00
3209.56,43.00
3210.30,0.00
3211.05,22.00
3211.79,0.00
3212.53,-21.00
3213.27,0.00
3214.01,-11.00
3214.75,21.00
3215.48,85.00
3216.22,106.00
3216.96,42.00
3217.69,0.00
3218.43,0.00
3219.17,0.00
3219.90,-10.00
3220.64,0.00
3221.37,-10.00
3222.10,0.00
3222.84,43.00
3223.57,53.00
3224.30,21.00
3225.03,64.00
3225.76,85.00
3226.49,42.00
3227.22,11.00
3227.95,-11.00
3228.68,21.00
3229.41,32.00
3230.14,63.00
3230.87,42.00
3231.59,10.00
3232.32,64.00
3233.04,53.00
3233.77,53.00
3234.49,53.00
3235.22,53.00
3235.94,64.00
3236.66,42.00
3237.39,11.00
3238.11,0.00
3238.83,32.00
3239.55,0.00
3240.27,-53.00
3240.99,0.00
3241.71,53.00
3242.43,64.00
3243.15,42.00
3243.87,11.00
3244.58,11.00
3245.30,63.00
3246.02,32.00
3246.73,43.00
3247.45,85.00
3248.16,75.00
3248.88,53.00
3249.59,22.00
3250.30,42.00
3251.01,11.00
3251.73,64.00
3252.44,53.00
3253.15,32.00
3253.86,32.00
3254.57,64.00
3255.28,21.00
3255.99,42.00
3256.70,53.00
3257.41,63.00
3258.11,63.00
3258.82,95.00
3259.53,74.00
3260.23,32.00
3260.94,0.00
3261.64,0.00
3262.35,0.00
3263.05,-22.00
3263.76,21.00
3264.46,0.00
3265.16,64.00
3265.86,21.00
3266.56,0.00
3267.26,10.00
3267.97,64.00
3268.67,64.00
3269.36,74.00
3270.06,22.00
3270.76,0.00
3271.46,21.00
3272.16,21.00
3272.85,0.00
