RamanShift,Intensity
180.91,363.00
183.74,456.00
186.56,498.00
189.39,677.00
192.21,995.00
195.03,1482.00
197.84,2054.00
200.66,2806.00
203.47,3707.00
206.28,4521.00
209.09,5326.00
211.89,6046.00
214.70,6671.00
217.50,7147.00
220.30,7519.00
223.10,7720.00
225.89,7879.00
228.69,7974.00
231.48,8069.00
234.27,8185.00
237.05,8301.00
239.84,8376.00
242.62,8218.00
245.40,8101.00
248.18,8048.00
250.96,8006.00
253.73,7963.00
256.51,7815.00
259.28,7603.00
262.05,7455.00
264.81,7328.00
267.58,7307.00
270.34,7349.00
273.10,7338.00
275.86,7285.00
278.61,7296.00
281.37,7243.00
284.12,7296.00
286.87,7454.00
289.62,7391.00
292.36,7306.00
295.11,7360.00
297.85,7423.00
300.59,7413.00
303.33,7328.00
306.06,7275.00
308.80,7285.00
311.53,7317.00
314.26,7380.00
316.99,7465.00
319.71,7349.00
322.44,7254.00
325.16,7338.00
327.88,7349.00
330.59,7349.00
333.31,7275.00
336.02,7243.00
338.73,7253.00
341.44,7317.00
344.15,7285.00
346.86,7211.00
349.56,7200.00
352.26,7169.00
354.96,7179.00
357.66,7211.00
360.35,7317.00
363.05,7328.00
365.74,7307.00
368.43,7370.00
371.12,7423.00
373.80,7519.00
376.48,7497.00
379.17,7540.00
381.85,7539.00
384.52,7518.00
387.20,7592.00
389.87,7720.00
392.54,7646.00
395.21,7550.00
397.88,7454.00
400.55,7487.00
403.21,7677.00
405.87,7667.00
408.53,7603.00
411.19,7646.00
413.84,7561.00
416.50,7582.00
419.15,7624.00
421.80,7614.00
424.45,7614.00
427.10,7592.00
429.74,7592.00
432.38,7656.00
435.02,7720.00
437.66,7698.00
440.30,7624.00
442.93,7614.00
445.56,7529.00
448.19,7603.00
450.82,7656.00
453.45,7709.00
456.07,7666.00
458.70,7666.00
461.32,7731.00
463.94,7656.00
466.55,7656.00
469.17,7688.00
471.78,7656.00
474.39,7624.00
477.00,7592.00
479.61,7762.00
482.22,7783.00
484.82,7624.00
487.42,7581.00
490.02,7603.00
492.62,7666.00
495.21,7624.00
497.81,7699.00
500.40,7624.00
502.99,7571.00
505.58,7656.00
508.17,7645.00
510.75,7550.00
513.33,7486.00
515.91,7540.00
518.49,7465.00
521.07,7391.00
523.65,7370.00
526.22,7486.00
528.79,7614.00
531.36,7433.00
533.93,7413.00
536.49,7412.00
539.06,7402.00
541.62,7423.00
544.18,7445.00
546.74,7465.00
549.30,7444.00
551.85,7528.00
554.40,7519.00
556.95,7529.00
559.50,7466.00
562.05,7392.00
564.59,7328.00
567.14,7296.00
569.68,7264.00
572.22,7285.00
574.76,7370.00
577.29,7380.00
579.83,7296.00
582.36,7232.00
584.89,7221.00
587.42,7222.00
589.95,7285.00
592.47,7339.00
594.99,7275.00
597.52,7105.00
600.04,7169.00
602.55,7243.00
605.07,7127.00
607.58,6968.00
610.09,7074.00
612.60,7201.00
615.11,7148.00
617.62,7126.00
620.12,7073.00
622.63,7148.00
625.13,7169.00
627.63,7020.00
630.13,6873.00
632.62,6904.00
635.12,6893.00
637.61,6978.00
640.10,6904.00
642.59,6830.00
645.07,6820.00
647.56,6809.00
650.04,6851.00
652.52,6893.00
655.00,6841.00
657.48,6746.00
659.96,6745.00
662.43,6883.00
664.90,6830.00
667.37,6830.00
669.84,6851.00
672.31,6798.00
674.78,6735.00
677.24,6693.00
679.70,6725.00
682.16,6788.00
684.62,6808.00
687.08,6724.00
689.53,6629.00
691.98,6692.00
694.43,6682.00
696.88,6650.00
699.33,6618.00
701.78,6597.00
704.22,6660.00
706.66,6566.00
709.10,6459.00
711.54,6513.00
713.98,6481.00
716.42,6491.00
718.85,6544.00
721.28,6671.00
723.71,6724.00
726.14,6873.00
728.57,6894.00
730.99,6893.00
733.41,6830.00
735.83,6798.00
738.25,6724.00
740.67,6587.00
743.09,6449.00
745.50,6353.00
747.91,6280.00
750.33,6226.00
752.73,6237.00
755.14,6195.00
757.55,6099.00
759.95,6142.00
762.35,6131.00
764.75,6099.00
767.15,6036.00
769.55,6131.00
771.95,6174.00
774.34,6079.00
776.73,6110.00
779.12,6131.00
781.51,6088.00
783.90,6078.00
786.28,6005.00
788.67,5961.00
791.05,5983.00
793.43,6015.00
795.80,6025.00
798.18,6047.00
800.56,5961.00
802.93,5898.00
805.30,5814.00
807.67,5771.00
810.04,5855.00
812.40,5877.00
814.77,5707.00
817.13,5750.00
819.49,5803.00
821.85,5623.00
824.21,5665.00
826.57,5771.00
828.92,5718.00
831.27,5612.00
833.63,5718.00
835.98,5665.00
838.32,5538.00
840.67,5527.00
843.01,5633.00
845.36,5613.00
847.70,5548.00
850.04,5474.00
852.37,5496.00
854.71,5495.00
857.05,5411.00
859.38,5401.00
861.71,5411.00
864.04,5422.00
866.37,5411.00
868.69,5432.00
871.02,5390.00
873.34,5411.00
875.66,5390.00
877.98,5380.00
880.30,5401.00
882.62,5316.00
884.93,5274.00
887.24,5316.00
889.55,5253.00
891.86,5210.00
894.17,5094.00
896.48,5136.00
898.78,5348.00
901.09,5252.00
903.39,5189.00
905.69,5284.00
907.99,5231.00
910.28,5168.00
912.58,5242.00
914.87,5263.00
917.16,5231.00
919.45,5242.00
921.74,5284.00
924.03,5231.00
926.31,5241.00
928.60,5231.00
930.88,5189.00
933.16,5189.00
935.44,5168.00
937.72,5147.00
939.99,5030.00
942.26,4988.00
944.54,5051.00
946.81,5072.00
949.08,5072.00
951.34,5030.00
953.61,5030.00
955.87,5030.00
958.14,4998.00
960.40,4998.00
962.66,4956.00
964.92,4818.00
967.17,4882.00
969.43,4966.00
971.68,4882.00
973.93,4818.00
976.18,4808.00
978.43,4818.00
980.68,4819.00
982.92,4839.00
985.17,4766.00
987.41,4734.00
989.65,4723.00
991.89,4691.00
994.12,4670.00
996.36,4723.00
998.59,4649.00
1000.83,4712.00
1003.06,4733.00
1005.29,4712.00
1007.51,4681.00
1009.74,4659.00
1011.97,4670.00
1014.19,4628.00
1016.41,4511.00
1018.63,4532.00
1020.85,4595.00
1023.07,4649.00
1025.28,4649.00
1027.49,4564.00
1029.71,4649.00
1031.92,4680.00
1034.13,4606.00
1036.33,4628.00
1038.54,4542.00
1040.74,4511.00
1042.95,4511.00
1045.15,4501.00
1047.35,4522.00
1049.55,4500.00
1051.74,4458.00
1053.94,4405.00
1056.13,4426.00
1058.32,4373.00
1060.51,4468.00
1062.70,4500.00
1064.89,4363.00
1067.08,4246.00
1069.26,4278.00
1071.44,4394.00
1073.63,4342.00
1075.81,4331.00
1077.98,4331.00
1080.16,4310.00
1082.34,4373.00
1084.51,4342.00
1086.68,4289.00
1088.85,4352.00
1091.02,4352.00
1093.19,4310.00
1095.35,4331.00
1097.52,4299.00
1099.68,4278.00
1101.84,4257.00
1104.00,4183.00
1106.16,4140.00
1108.32,4246.00
1110.48,4267.00
1112.63,4278.00
1114.78,4352.00
1116.93,4257.00
1119.08,4034.00
1121.23,4034.00
1123.38,4204.00
1125.52,4204.00
1127.67,4203.00
1129.81,4151.00
1131.95,4108.00
1134.09,3949.00
1136.22,3929.00
1138.36,4002.00
1140.50,4024.00
1142.63,3982.00
1144.76,3992.00
1146.89,3981.00
1149.02,3949.00
1151.15,4055.00
1153.27,4055.00
1155.40,4056.00
1157.52,4013.00
1159.64,3992.00
1161.76,3971.00
1163.88,3950.00
1165.99,3949.00
1168.11,3939.00
1170.22,3875.00
1172.34,3865.00
1174.45,3854.00
1176.56,3897.00
1178.66,3876.00
1180.77,3791.00
1182.88,3802.00
1184.98,3802.00
1187.08,3759.00
1189.18,3844.00
1191.28,3781.00
1193.38,3833.00
1195.47,3812.00
1197.57,3759.00
1199.66,3759.00
1201.75,3674.00
1203.85,3738.00
1205.93,3801.00
1208.02,3802.00
1210.11,3759.00
1212.19,3791.00
1214.28,3843.00
1216.36,3823.00
1218.44,3781.00
1220.52,3749.00
1222.59,3802.00
1224.67,3802.00
1226.74,3801.00
1228.82,3844.00
1230.89,3823.00
1232.96,3802.00
1235.03,3749.00
1237.10,3780.00
1239.16,3759.00
1241.23,3759.00
1243.29,3738.00
1245.35,3716.00
1247.41,3770.00
1249.47,3760.00
1251.53,3759.00
1253.58,3716.00
1255.64,3622.00
1257.69,3600.00
1259.74,3547.00
1261.79,3548.00
1263.84,3569.00
1265.89,3558.00
1267.93,3590.00
1269.98,3632.00
1272.02,3558.00
1274.06,3505.00
1276.10,3484.00
1278.14,3505.00
1280.18,3473.00
1282.22,3484.00
1284.25,3473.00
1286.28,3420.00
1288.32,3420.00
1290.35,3452.00
1292.38,3410.00
1294.40,3378.00
1296.43,3462.00
1298.46,3463.00
1300.48,3452.00
1302.50,3463.00
1304.52,3399.00
1306.54,3420.00
1308.56,3442.00
1310.58,3484.00
1312.59,3462.00
1314.60,3378.00
1316.62,3388.00
1318.63,3526.00
1320.64,3569.00
1322.65,3516.00
1324.65,3611.00
1326.66,3633.00
1328.66,3632.00
1330.66,3643.00
1332.67,3653.00
1334.67,3590.00
1336.66,3536.00
1338.66,3462.00
1340.66,3442.00
1342.65,3463.00
1344.65,3420.00
1346.64,3367.00
1348.63,3431.00
1350.62,3293.00
1352.60,3262.00
1354.59,3357.00
1356.57,3399.00
1358.56,3336.00
1360.54,3240.00
1362.52,3219.00
1364.50,3251.00
1366.48,3293.00
1368.46,3188.00
1370.43,3177.00
1372.41,3208.00
1374.38,3261.00
1376.35,3282.00
1378.32,3208.00
1380.29,3166.00
1382.25,3240.00
1384.22,3198.00
1386.18,3134.00
1388.15,3188.00
1390.11,3208.00
1392.07,3198.00
1394.03,3156.00
1395.99,3145.00
1397.94,3123.00
1399.90,3145.00
1401.85,3103.00
1403.80,3082.00
1405.76,3092.00
1407.71,3113.00
1409.65,3113.00
1411.60,3049.00
1413.55,3018.00
1415.49,3018.00
1417.44,2954.00
1419.38,2944.00
1421.32,2976.00
1423.26,2976.00
1425.19,2933.00
1427.13,2933.00
1429.07,2922.00
1431.00,2976.00
1432.93,2944.00
1434.86,2922.00
1436.79,2881.00
1438.72,2881.00
1440.65,2902.00
1442.57,2870.00
1444.50,2912.00
1446.42,2955.00
1448.34,2933.00
1450.26,2881.00
1452.18,2869.00
1454.10,2934.00
1456.02,2933.00
1457.93,2796.00
1459.85,2827.00
1461.76,2859.00
1463.67,2848.00
1465.58,2827.00
1467.49,2849.00
1469.40,2838.00
1471.31,2806.00
1473.21,2743.00
1475.11,2774.00
1477.02,2774.00
1478.92,2774.00
1480.82,2806.00
1482.72,2732.00
1484.61,2732.00
1486.51,2743.00
1488.40,2711.00
1490.30,2711.00
1492.19,2753.00
1494.08,2764.00
1495.97,2710.00
1497.86,2711.00
1499.74,2721.00
1501.63,2732.00
1503.51,2764.00
1505.40,2700.00
1507.28,2711.00
1509.16,2700.00
1511.04,2669.00
1512.92,2680.00
1514.79,2722.00
1516.67,2721.00
1518.54,2700.00
1520.42,2732.00
1522.29,2754.00
1524.16,2742.00
1526.03,2668.00
1527.89,2658.00
1529.76,2648.00
1531.63,2616.00
1533.49,2637.00
1535.35,2615.00
1537.21,2637.00
1539.07,2626.00
1540.93,2647.00
1542.79,2616.00
1544.65,2573.00
1546.50,2573.00
1548.36,2488.00
1550.21,2414.00
1552.06,2563.00
1553.91,2627.00
1555.76,2583.00
1557.61,2552.00
1559.45,2552.00
1561.30,2541.00
1563.14,2478.00
1564.98,2520.00
1566.82,2520.00
1568.67,2478.00
1570.50,2520.00
1572.34,2520.00
1574.18,2530.00
1576.01,2563.00
1577.85,2520.00
1579.68,2447.00
1581.51,2415.00
1583.34,2436.00
1585.17,2414.00
1587.00,2340.00
1588.82,2308.00
1590.65,2329.00
1592.47,2308.00
1594.30,2330.00
1596.12,2351.00
1597.94,2340.00
1599.76,2425.00
1601.57,2393.00
1603.39,2372.00
1605.21,2319.00
1607.02,2361.00
1608.83,2382.00
1610.64,2351.00
1612.45,2319.00
1614.26,2309.00
1616.07,2308.00
1617.88,2340.00
1619.68,2319.00
1621.49,2319.00
1623.29,2383.00
1625.09,2298.00
1626.89,2277.00
1628.69,2235.00
1630.49,2181.00
1632.29,2192.00
1634.08,2277.00
1635.88,2266.00
1637.67,2245.00
1639.46,2287.00
1641.25,2266.00
1643.04,2213.00
1644.83,2235.00
1646.62,2182.00
1648.41,2160.00
1650.19,2139.00
1651.97,2117.00
1653.76,2149.00
1655.54,2129.00
1657.32,2149.00
1659.10,2108.00
1660.88,2139.00
1662.65,2139.00
1664.43,2118.00
1666.20,2118.00
1667.97,2097.00
1669.75,2107.00
1671.52,2075.00
1673.29,2076.00
1675.05,2118.00
1676.82,2117.00
1678.59,2075.00
1680.35,2076.00
1682.11,2054.00
1683.88,2023.00
1685.64,2065.00
1687.40,1991.00
1689.16,2001.00
1690.91,1991.00
1692.67,1948.00
1694.42,1949.00
1696.18,2054.00
1697.93,2033.00
1699.68,1991.00
1701.43,1938.00
1703.18,1927.00
1704.93,1948.00
1706.68,1970.00
1708.42,1949.00
1710.17,1948.00
1711.91,1938.00
1713.65,1896.00
1715.39,1853.00
1717.13,1843.00
1718.87,1885.00
1720.61,1843.00
1722.35,1885.00
1724.08,1864.00
1725.81,1843.00
1727.55,1832.00
1729.28,1800.00
1731.01,1853.00
1732.74,1917.00
1734.47,1906.00
1736.19,1843.00
1737.92,1790.00
1739.64,1779.00
1741.37,1874.00
1743.09,1885.00
1744.81,1853.00
1746.53,1821.00
1748.25,1832.00
1749.97,1822.00
1751.68,1821.00
1753.40,1757.00
1755.11,1779.00
1756.83,1842.00
1758.54,1800.00
1760.25,1801.00
1761.96,1821.00
1763.67,1800.00
1765.38,1737.00
1767.08,1747.00
1768.79,1695.00
1770.49,1694.00
1772.19,1726.00
1773.90,1726.00
1775.60,1694.00
1777.30,1716.00
1778.99,1790.00
1780.69,1800.00
1782.39,1758.00
1784.08,1736.00
1785.78,1779.00
1787.47,1758.00
1789.16,1694.00
1790.85,1705.00
1792.54,1683.00
1794.23,1684.00
1795.91,1695.00
1797.60,1716.00
1799.28,1663.00
1800.97,1674.00
1802.65,1726.00
1804.33,1758.00
1806.01,1715.00
1807.69,1673.00
1809.37,1610.00
1811.05,1641.00
1812.72,1652.00
1814.40,1652.00
1816.07,1641.00
1817.74,1694.00
1819.41,1737.00
1821.08,1694.00
1822.75,1652.00
1824.42,1641.00
1826.09,1631.00
1827.75,1652.00
1829.42,1652.00
1831.08,1652.00
1832.74,1557.00
1834.40,1546.00
1836.06,1631.00
1837.72,1610.00
1839.38,1588.00
1841.04,1631.00
1842.69,1588.00
1844.35,1557.00
1846.00,1557.00
1847.65,1514.00
1849.30,1556.00
1850.95,1546.00
1852.60,1525.00
1854.25,1589.00
1855.90,1546.00
1857.54,1503.00
1859.19,1462.00
1860.83,1493.00
1862.47,1524.00
1864.12,1504.00
1865.76,1482.00
1867.40,1514.00
1869.03,1525.00
1870.67,1503.00
1872.31,1535.00
1873.94,1504.00
1875.57,1493.00
1877.21,1472.00
1878.84,1483.00
1880.47,1493.00
1882.10,1493.00
1883.73,1536.00
1885.35,1461.00
1886.98,1440.00
1888.61,1419.00
1890.23,1398.00
1891.85,1398.00
1893.47,1472.00
1895.09,1493.00
1896.71,1419.00
1898.33,1388.00
1899.95,1408.00
1901.57,1440.00
1903.18,1409.00
1904.80,1345.00
1906.41,1335.00
1908.02,1377.00
1909.63,1313.00
1911.24,1323.00
1912.85,1366.00
1914.46,1419.00
1916.07,1430.00
1917.67,1387.00
1919.28,1345.00
1920.88,1356.00
1922.48,1377.00
1924.08,1377.00
1925.68,1334.00
1927.28,1282.00
1928.88,1271.00
1930.48,1313.00
1932.07,1303.00
1933.67,1324.00
1935.26,1334.00
1936.86,1334.00
1938.45,1334.00
1940.04,1282.00
1941.63,1239.00
1943.22,1292.00
1944.80,1292.00
1946.39,1313.00
1947.98,1313.00
1949.56,1292.00
1951.14,1260.00
1952.73,1281.00
1954.31,1291.00
1955.89,1281.00
1957.47,1271.00
1959.05,1228.00
1960.62,1282.00
1962.20,1281.00
1963.77,1250.00
1965.35,1217.00
1966.92,1217.00
1968.49,1239.00
1970.06,1164.00
1971.63,1207.00
1973.20,1218.00
1974.77,1271.00
1976.34,1313.00
1977.90,1313.00
1979.47,1270.00
1981.03,1260.00
1982.59,1260.00
1984.15,1291.00
1985.71,1281.00
1987.27,1249.00
1988.83,1228.00
1990.39,1282.00
1991.94,1260.00
1993.50,1186.00
1995.05,1186.00
1996.61,1229.00
1998.16,1186.00
1999.71,1229.00
2001.26,1281.00
2002.81,1260.00
2004.36,1186.00
2005.91,1133.00
2007.45,1164.00
2009.00,1186.00
2010.54,1164.00
2012.08,1186.00
2013.62,1175.00
2015.17,1144.00
2016.71,1112.00
2018.24,1101.00
2019.78,1123.00
2021.32,1122.00
2022.85,1133.00
2024.39,1091.00
2025.92,1133.00
2027.46,1122.00
2028.99,1122.00
2030.52,1112.00
2032.05,1122.00
2033.58,1091.00
2035.10,1080.00
2036.63,1102.00
2038.16,1155.00
2039.68,1143.00
2041.21,1154.00
2042.73,1175.00
2044.25,1133.00
2045.77,1122.00
2047.29,1090.00
2048.81,1101.00
2050.33,1122.00
2051.84,1091.00
2053.36,1091.00
2054.87,1049.00
2056.39,1058.00
2057.90,1091.00
2059.41,1048.00
2060.92,1101.00
2062.43,1069.00
2063.94,1027.00
2065.45,1038.00
2066.95,1037.00
2068.46,1048.00
2069.96,1038.00
2071.47,1070.00
2072.97,1049.00
2074.47,1027.00
2075.97,1027.00
2077.47,1101.00
2078.97,1090.00
2080.47,1059.00
2081.96,1038.00
2083.46,1006.00
2084.95,953.00
2086.45,932.00
2087.94,985.00
2089.43,1006.00
2090.92,1017.00
2092.41,1016.00
2093.90,1006.00
2095.39,984.00
2096.88,1027.00
2098.36,1037.00
2099.85,975.00
2101.33,932.00
2102.81,932.00
2104.30,943.00
2105.78,932.00
2107.26,953.00
2108.74,932.00
2110.21,900.00
2111.69,910.00
2113.17,921.00
2114.64,910.00
2116.12,932.00
2117.59,911.00
2119.06,910.00
2120.53,910.00
2122.00,889.00
2123.47,900.00
2124.94,879.00
2126.41,921.00
2127.87,931.00
2129.34,931.00
2130.80,889.00
2132.27,889.00
2133.73,900.00
2135.19,900.00
2136.65,911.00
2138.11,985.00
2139.57,922.00
2141.03,889.00
2142.48,932.00
2143.94,900.00
2145.39,900.00
2146.85,869.00
2148.30,869.00
2149.75,900.00
2151.20,890.00
2152.65,869.00
2154.10,889.00
2155.55,890.00
2157.00,900.00
2158.44,953.00
2159.89,889.00
2161.33,879.00
2162.78,890.00
2164.22,910.00
2165.66,910.00
2167.10,900.00
2168.54,879.00
2169.98,848.00
2171.42,805.00
2172.85,826.00
2174.29,826.00
2175.72,836.00
2177.16,837.00
2178.59,805.00
2180.02,826.00
2181.45,794.00
2182.88,795.00
2184.31,826.00
2185.74,826.00
2187.17,804.00
2188.59,848.00
2190.02,868.00
2191.44,847.00
2192.87,805.00
2194.29,805.00
2195.71,847.00
2197.13,826.00
2198.55,773.00
2199.97,784.00
2201.39,784.00
2202.81,773.00
2204.22,816.00
2205.64,826.00
2207.05,826.00
2208.46,858.00
2209.88,826.00
2211.29,847.00
2212.70,794.00
2214.11,762.00
2215.52,752.00
2216.92,783.00
2218.33,794.00
2219.74,783.00
2221.14,773.00
2222.54,709.00
2223.95,720.00
2225.35,731.00
2226.75,763.00
2228.15,784.00
2229.55,805.00
2230.95,763.00
2232.35,689.00
2233.74,667.00
2235.14,710.00
2236.53,731.00
2237.93,720.00
2239.32,762.00
2240.71,794.00
2242.10,763.00
2243.49,699.00
2244.88,741.00
2246.27,709.00
2247.66,699.00
2249.04,699.00
2250.43,762.00
2251.81,709.00
2253.20,741.00
2254.58,689.00
2255.96,688.00
2257.34,677.00
2258.72,668.00
2260.10,688.00
2261.48,741.00
2262.86,698.00
2264.23,667.00
2265.61,699.00
2266.98,698.00
2268.36,677.00
2269.73,699.00
2271.10,688.00
2272.47,678.00
2273.84,678.00
2275.21,668.00
2276.58,656.00
2277.95,656.00
2279.31,604.00
2280.68,593.00
2282.05,657.00
2283.41,646.00
2284.77,636.00
2286.13,678.00
2287.50,709.00
2288.86,699.00
2290.22,635.00
2291.57,699.00
2292.93,677.00
2294.29,677.00
2295.64,752.00
2297.00,699.00
2298.35,656.00
2299.71,646.00
2301.06,656.00
2302.41,646.00
2303.76,604.00
2305.11,593.00
2306.46,657.00
2307.81,593.00
2309.15,603.00
2310.50,614.00
2311.84,604.00
2313.19,561.00
2314.53,593.00
2315.87,635.00
2317.22,678.00
2318.56,614.00
2319.90,541.00
2321.24,561.00
2322.57,541.00
2323.91,615.00
2325.25,604.00
2326.58,604.00
2327.92,603.00
2329.25,635.00
2330.58,667.00
2331.91,656.00
2333.25,614.00
2334.58,614.00
2335.90,593.00
2337.23,540.00
2338.56,604.00
2339.89,604.00
2341.21,604.00
2342.54,572.00
2343.86,519.00
2345.19,561.00
2346.51,593.00
2347.83,540.00
2349.15,561.00
2350.47,550.00
2351.79,593.00
2353.11,561.00
2354.42,551.00
2355.74,551.00
2357.06,550.00
2358.37,571.00
2359.68,540.00
2361.00,562.00
2362.31,561.00
2363.62,550.00
2364.93,571.00
2366.24,562.00
2367.55,572.00
2368.86,529.00
2370.16,529.00
2371.47,508.00
2372.77,550.00
2374.08,540.00
2375.38,541.00
2376.68,561.00
2377.98,529.00
2379.29,477.00
2380.59,519.00
2381.88,519.00
2383.18,551.00
2384.48,508.00
2385.78,487.00
2387.07,497.00
2388.37,519.00
2389.66,562.00
2390.95,519.00
2392.25,519.00
2393.54,498.00
2394.83,487.00
2396.12,519.00
2397.41,497.00
2398.70,530.00
2399.98,572.00
2401.27,498.00
2402.55,487.00
2403.84,465.00
2405.12,455.00
2406.41,456.00
2407.69,487.00
2408.97,487.00
2410.25,529.00
2411.53,508.00
2412.81,519.00
2414.09,519.00
2415.36,456.00
2416.64,444.00
2417.91,497.00
2419.19,455.00
2420.46,445.00
2421.74,455.00
2423.01,445.00
2424.28,477.00
2425.55,498.00
2426.82,456.00
2428.09,424.00
2429.36,477.00
2430.62,466.00
2431.89,434.00
2433.15,434.00
2434.42,487.00
2435.68,455.00
2436.94,434.00
2438.21,445.00
2439.47,476.00
2440.73,466.00
2441.99,455.00
2443.25,444.00
2444.51,445.00
2445.76,477.00
2447.02,508.00
2448.27,476.00
2449.53,413.00
2450.78,371.00
2452.03,392.00
2453.29,381.00
2454.54,381.00
2455.79,423.00
2457.04,445.00
2458.29,455.00
2459.54,445.00
2460.78,413.00
2462.03,424.00
2463.27,403.00
2464.52,402.00
2465.76,434.00
2467.01,487.00
2468.25,456.00
2469.49,402.00
2470.73,381.00
2471.97,381.00
2473.21,403.00
2474.45,403.00
2475.69,391.00
2476.92,381.00
2478.16,382.00
2479.39,423.00
2480.63,403.00
2481.86,434.00
2483.09,424.00
2484.32,434.00
2485.56,381.00
2486.79,402.00
2488.02,423.00
2489.24,444.00
2490.47,413.00
2491.70,413.00
2492.92,402.00
2494.15,392.00
2495.37,381.00
2496.60,381.00
2497.82,360.00
2499.04,349.00
2500.26,381.00
2501.48,424.00
2502.70,413.00
2503.92,413.00
2505.14,413.00
2506.36,381.00
2507.58,392.00
2508.79,360.00
2510.01,371.00
2511.22,371.00
2512.43,423.00
2513.64,360.00
2514.86,360.00
2516.07,371.00
2517.28,360.00
2518.49,381.00
2519.70,434.00
2520.90,360.00
2522.11,339.00
2523.32,360.00
2524.52,413.00
2525.73,403.00
2526.93,413.00
2528.13,423.00
2529.33,371.00
2530.54,381.00
2531.74,382.00
2532.94,360.00
2534.14,350.00
2535.33,381.00
2536.53,339.00
2537.73,338.00
2538.92,402.00
2540.12,371.00
2541.31,402.00
2542.51,392.00
2543.70,370.00
2544.89,350.00
2546.08,360.00
2547.27,360.00
2548.46,339.00
2549.65,328.00
2550.84,381.00
2552.03,360.00
2553.21,338.00
2554.40,328.00
2555.58,349.00
2556.77,360.00
2557.95,339.00
2559.13,318.00
2560.31,349.00
2561.50,339.00
2562.68,307.00
2563.85,296.00
2565.03,339.00
2566.21,318.00
2567.39,339.00
2568.56,360.00
2569.74,318.00
2570.91,360.00
2572.09,339.00
2573.26,328.00
2574.43,339.00
2575.61,275.00
2576.78,254.00
2577.95,297.00
2579.12,297.00
2580.29,307.00
2581.45,297.00
2582.62,317.00
2583.79,296.00
2584.95,297.00
2586.12,285.00
2587.28,328.00
2588.44,381.00
2589.61,391.00
2590.77,318.00
2591.93,328.00
2593.09,339.00
2594.25,297.00
2595.41,265.00
2596.56,307.00
2597.72,296.00
2598.88,339.00
2600.03,307.00
2601.19,275.00
2602.34,286.00
2603.50,254.00
2604.65,276.00
2605.80,317.00
2606.95,286.00
2608.10,233.00
2609.25,233.00
2610.40,254.00
2611.55,255.00
2612.70,275.00
2613.84,317.00
2614.99,297.00
2616.13,307.00
2617.28,318.00
2618.42,307.00
2619.56,296.00
2620.71,297.00
2621.85,286.00
2622.99,275.00
2624.13,264.00
2625.27,276.00
2626.40,265.00
2627.54,286.00
2628.68,296.00
2629.81,339.00
2630.95,307.00
2632.08,233.00
2633.22,255.00
2634.35,286.00
2635.48,296.00
2636.61,318.00
2637.74,307.00
2638.87,307.00
2640.00,297.00
2641.13,286.00
2642.26,297.00
2643.39,318.00
2644.51,318.00
2645.64,286.00
2646.76,254.00
2647.89,212.00
2649.01,233.00
2650.13,254.00
2651.25,286.00
2652.38,265.00
2653.50,297.00
2654.62,286.00
2655.73,276.00
2656.85,244.00
2657.97,254.00
2659.09,297.00
2660.20,243.00
2661.32,222.00
2662.43,264.00
2663.55,297.00
2664.66,328.00
2665.77,329.00
2666.88,297.00
2667.99,265.00
2669.10,286.00
2670.21,233.00
2671.32,254.00
2672.43,254.00
2673.54,254.00
2674.64,212.00
2675.75,233.00
2676.85,244.00
2677.96,191.00
2679.06,212.00
2680.16,254.00
2681.26,233.00
2682.37,254.00
2683.47,212.00
2684.57,233.00
2685.66,254.00
2686.76,212.00
2687.86,275.00
2688.96,328.00
2690.05,254.00
2691.15,212.00
2692.24,243.00
2693.34,212.00
2694.43,254.00
2695.52,254.00
2696.62,254.00
2697.71,212.00
2698.80,212.00
2699.89,233.00
2700.98,233.00
2702.06,233.00
2703.15,222.00
2704.24,243.00
2705.32,264.00
2706.41,233.00
2707.49,222.00
2708.58,243.00
2709.66,244.00
2710.74,233.00
2711.83,233.00
2712.91,254.00
2713.99,276.00
2715.07,243.00
2716.15,223.00
2717.22,191.00
2718.30,233.00
2719.38,202.00
2720.45,254.00
2721.53,255.00
2722.60,223.00
2723.68,212.00
2724.75,233.00
2725.82,254.00
2726.89,254.00
2727.97,212.00
2729.04,170.00
2730.11,191.00
2731.17,190.00
2732.24,233.00
2733.31,254.00
2734.38,180.00
2735.44,190.00
2736.51,212.00
2737.57,191.00
2738.64,169.00
2739.70,223.00
2740.76,180.00
2741.82,190.00
2742.89,170.00
2743.95,222.00
2745.01,222.00
2746.07,212.00
2747.12,233.00
2748.18,201.00
2749.24,264.00
2750.29,201.00
2751.35,148.00
2752.40,170.00
2753.46,180.00
2754.51,191.00
2755.57,212.00
2756.62,201.00
2757.67,233.00
2758.72,212.00
2759.77,212.00
2760.82,212.00
2761.87,190.00
2762.91,201.00
2763.96,244.00
2765.01,233.00
2766.05,170.00
2767.10,148.00
2768.14,191.00
2769.19,169.00
2770.23,169.00
2771.27,222.00
2772.31,244.00
2773.35,191.00
2774.40,169.00
2775.43,180.00
2776.47,212.00
2777.51,169.00
2778.55,233.00
2779.59,191.00
2780.62,169.00
2781.66,169.00
2782.69,137.00
2783.73,190.00
2784.76,191.00
2785.79,232.00
2786.82,190.00
2787.85,75.00
2788.89,85.00
2789.92,149.00
2790.94,148.00
2791.97,137.00
2793.00,148.00
2794.03,170.00
2795.05,211.00
2796.08,159.00
2797.11,138.00
2798.13,170.00
2799.15,191.00
2800.18,170.00
2801.20,127.00
2802.22,149.00
2803.24,170.00
2804.26,180.00
2805.28,180.00
2806.30,170.00
2807.32,169.00
2808.34,169.00
2809.35,128.00
2810.37,127.00
2811.39,169.00
2812.40,191.00
2813.41,211.00
2814.43,212.00
2815.44,180.00
2816.45,127.00
2817.46,149.00
2818.48,169.00
2819.49,170.00
2820.49,148.00
2821.50,138.00
2822.51,212.00
2823.52,191.00
2824.53,138.00
2825.53,169.00
2826.54,149.00
2827.54,149.00
2828.55,148.00
2829.55,148.00
2830.55,137.00
2831.55,127.00
2832.56,128.00
2833.56,106.00
2834.56,127.00
2835.56,137.00
2836.56,149.00
2837.55,128.00
2838.55,127.00
2839.55,159.00
2840.54,180.00
2841.54,148.00
2842.53,84.00
2843.53,127.00
2844.52,159.00
2845.51,170.00
2846.51,148.00
2847.50,148.00
2848.49,159.00
2849.48,169.00
2850.47,148.00
2851.46,180.00
2852.45,169.00
2853.43,138.00
2854.42,169.00
2855.41,180.00
2856.39,170.00
2857.38,159.00
2858.36,106.00
2859.34,74.00
2860.33,127.00
2861.31,149.00
2862.29,106.00
2863.27,138.00
2864.25,170.00
2865.23,159.00
2866.21,106.00
2867.19,116.00
2868.17,169.00
2869.14,159.00
2870.12,95.00
2871.09,127.00
2872.07,159.00
2873.04,148.00
2874.02,106.00
2874.99,105.00
2875.96,148.00
2876.93,190.00
2877.91,180.00
2878.88,148.00
2879.85,127.00
2880.82,84.00
2881.78,149.00
2882.75,127.00
2883.72,127.00
2884.69,148.00
2885.65,127.00
2886.62,148.00
2887.58,137.00
2888.55,148.00
2889.51,159.00
2890.47,127.00
2891.43,127.00
2892.39,95.00
2893.36,127.00
2894.31,106.00
2895.27,127.00
2896.23,170.00
2897.19,159.00
2898.15,191.00
2899.11,148.00
2900.06,116.00
2901.02,159.00
2901.97,159.00
2902.93,116.00
2903.88,85.00
2904.83,106.00
2905.79,128.00
2906.74,106.00
2907.69,116.00
2908.64,148.00
2909.59,191.00
2910.54,212.00
2911.49,159.00
2912.43,159.00
2913.38,137.00
2914.33,116.00
2915.27,74.00
2916.22,96.00
2917.16,106.00
2918.11,148.00
2919.05,106.00
2919.99,127.00
2920.94,138.00
2921.88,148.00
2922.82,116.00
2923.76,95.00
2924.70,105.00
2925.64,106.00
2926.58,137.00
2927.51,117.00
2928.45,106.00
2929.39,106.00
2930.32,96.00
2931.26,106.00
2932.19,106.00
2933.13,127.00
2934.06,85.00
2934.99,137.00
2935.92,127.00
2936.86,148.00
2937.79,201.00
2938.72,201.00
2939.65,127.00
2940.57,74.00
2941.50,85.00
2942.43,138.00
2943.36,95.00
2944.28,148.00
2945.21,180.00
2946.13,149.00
2947.06,127.00
2947.98,159.00
2948.91,159.00
2949.83,169.00
2950.75,106.00
2951.67,106.00
2952.59,106.00
2953.51,106.00
2954.43,138.00
2955.35,96.00
2956.27,106.00
2957.19,138.00
2958.10,180.00
2959.02,127.00
2959.94,85.00
2960.85,85.00
2961.77,116.00
2962.68,127.00
2963.59,53.00
2964.51,85.00
2965.42,84.00
2966.33,95.00
2967.24,84.00
2968.15,84.00
2969.06,43.00
2969.97,53.00
2970.88,138.00
2971.78,127.00
2972.69,84.00
2973.60,84.00
2974.50,106.00
2975.41,169.00
2976.31,169.00
2977.22,169.00
2978.12,106.00
2979.02,85.00
2979.93,85.00
2980.83,85.00
2981.73,96.00
2982.63,84.00
2983.53,117.00
2984.43,106.00
2985.33,106.00
2986.22,95.00
2987.12,106.00
2988.02,84.00
2988.91,106.00
2989.81,85.00
2990.70,53.00
2991.60,96.00
2992.49,106.00
2993.38,106.00
2994.28,85.00
2995.17,43.00
2996.06,85.00
2996.95,138.00
2997.84,84.00
2998.73,53.00
2999.62,105.00
3000.51,85.00
3001.40,95.00
3002.28,116.00
3003.17,96.00
3004.05,159.00
3004.94,137.00
3005.82,95.00
3006.71,53.00
3007.59,96.00
3008.47,116.00
3009.36,116.00
3010.24,85.00
3011.12,85.00
3012.00,63.00
3012.88,137.00
3013.76,159.00
3014.64,116.00
3015.51,85.00
3016.39,117.00
3017.27,64.00
3018.14,106.00
3019.02,116.00
3019.89,148.00
3020.77,85.00
3021.64,52.00
3022.52,52.00
3023.39,43.00
3024.26,84.00
3025.13,53.00
3026.00,95.00
3026.87,148.00
3027.74,95.00
3028.61,74.00
3029.48,63.00
3030.35,43.00
3031.21,42.00
3032.08,105.00
3032.95,106.00
3033.81,64.00
3034.68,31.00
3035.54,11.00
3036.40,42.00
3037.27,85.00
3038.13,85.00
3038.99,74.00
3039.85,53.00
3040.71,21.00
3041.57,21.00
3042.43,74.00
3043.29,75.00
3044.15,63.00
3045.01,31.00
3045.86,64.00
3046.72,137.00
3047.58,106.00
3048.43,117.00
3049.29,85.00
3050.14,74.00
3050.99,74.00
3051.85,85.00
3052.70,31.00
3053.55,11.00
3054.40,21.00
3055.25,-32.00
3056.10,22.00
3056.95,63.00
3057.80,116.00
3058.65,106.00
3059.50,85.00
3060.34,22.00
3061.19,74.00
3062.04,116.00
3062.88,95.00
3063.73,32.00
3064.57,31.00
3065.42,42.00
3066.26,85.00
3067.10,42.00
3067.94,21.00
3068.78,0.00
3069.63,53.00
3070.47,63.00
3071.31,52.00
3072.14,116.00
3072.98,127.00
3073.82,85.00
3074.66,96.00
3075.49,85.00
3076.33,85.00
3077.17,84.00
3078.00,85.00
3078.83,95.00
3079.67,85.00
3080.50,127.00
3081.33,106.00
3082.17,74.00
3083.00,42.00
3083.83,84.00
3084.66,64.00
3085.49,53.00
3086.32,84.00
3087.15,117.00
3087.97,148.00
3088.80,106.00
3089.63,32.00
3090.46,74.00
3091.28,127.00
3092.11,63.00
3092.93,74.00
3093.75,127.00
3094.58,84.00
3095.40,74.00
3096.22,85.00
3097.05,63.00
3097.87,64.00
3098.69,64.00
3099.51,63.00
3100.33,21.00
3101.15,63.00
3101.96,63.00
3102.78,53.00
3103.60,85.00
3104.42,74.00
3105.23,85.00
3106.05,32.00
3106.86,22.00
3107.68,21.00
3108.49,10.00
3109.30,74.00
3110.12,63.00
3110.93,42.00
3111.74,74.00
3112.55,106.00
3113.36,106.00
3114.17,53.00
3114.98,31.00
3115.79,11.00
3116.60,64.00
3117.40,64.00
3118.21,63.00
3119.02,52.00
3119.82,42.00
3120.63,42.00
3121.43,42.00
3122.24,32.00
3123.04,84.00
3123.84,53.00
3124.65,42.00
3125.45,95.00
3126.25,53.00
3127.05,64.00
3127.85,64.00
3128.65,0.00
3129.45,74.00
3130.25,117.00
3131.05,64.00
3131.84,64.00
3132.64,42.00
3133.44,74.00
3134.23,74.00
3135.03,63.00
3135.82,32.00
3136.62,64.00
3137.41,22.00
3138.20,43.00
3139.00,84.00
3139.79,116.00
3140.58,84.00
3141.37,31.00
3142.16,31.00
3142.95,53.00
3143.74,32.00
3144.53,95.00
3145.32,42.00
3146.10,10.00
3146.89,74.00
3147.68,128.00
3148.46,95.00
3149.25,53.00
3150.03,64.00
3150.82,21.00
3151.60,11.00
3152.38,42.00
3153.17,85.00
3153.95,74.00
3154.73,32.00
3155.51,0.00
3156.29,21.00
3157.07,0.00
3157.85,53.00
3158.63,74.00
3159.41,63.00
3160.18,42.00
3160.96,10.00
3161.74,63.00
3162.51,117.00
3163.29,106.00
3164.06,22.00
3164.84,42.00
3165.61,32.00
3166.38,0.00
3167.16,53.00
3167.93,106.00
3168.70,63.00
3169.47,63.00
3170.24,53.00
3171.01,42.00
3171.78,32.00
3172.55,-21.00
3173.32,63.00
3174.09,96.00
3174.85,63.00
3175.62,21.00
3176.39,42.00
3177.15,42.00
3177.92,84.00
3178.68,106.00
3179.45,127.00
3180.21,64.00
3180.97,11.00
3181.73,21.00
3182.50,21.00
3183.26,32.00
3184.02,105.00
3184.78,53.00
3185.54,32.00
3186.30,21.00
3187.05,0.00
3187.81,53.00
3188.57,42.00
3189.33,21.00
3190.08,42.00
3190.84,84.00
3191.59,85.00
3192.35,64.00
3193.10,85.00
3193.86,63.00
3194.61,84.00
3195.36,64.00
3196.12,74.00
3196.87,84.00
3197.62,63.00
3198.37,11.00
3199.12,63.00
3199.87,53.00
3200.62,0.00
3201.36,53.00
3202.11,74.00
3202.86,85.00
3203.61,64.00
3204.35,32.00
3205.10,10.00
3205.84,0.00
3206.59,21.00
3207.33,85.00
3208.08,85.00
3208.82,31.00
3209.56,42.00
3210.30,63.00
3211.05,64.00
3211.79,74.00
3212.53,0.00
3213.27,-21.00
3214.01,21.00
3214.75,53.00
3215.48,32.00
3216.22,63.00
3216.96,95.00
3217.69,84.00
3218.43,32.00
3219.17,21.00
3219.90,21.00
3220.64,42.00
3221.37,32.00
3222.10,21.00
3222.84,-21.00
3223.57,22.00
3224.30,105.00
3225.03,53.00
3225.76,11.00
3226.49,74.00
3227.22,106.00
3227.95,32.00
3228.68,0.00
3229.41,42.00
3230.14,21.00
3230.87,53.00
3231.59,0.00
3232.32,31.00
3233.04,74.00
3233.77,32.00
3234.49,43.00
3235.22,11.00
3235.94,11.00
3236.66,42.00
3237.39,10.00
3238.11,0.00
3238.83,53.00
3239.55,116.00
3240.27,64.00
3240.99,63.00
3241.71,53.00
3242.43,0.00
3243.15,0.00
3243.87,42.00
3244.58,22.00
3245.30,21.00
3246.02,32.00
3246.73,75.00
3247.45,127.00
3248.16,63.00
3248.88,106.00
3249.59,64.00
3250.30,0.00
3251.01,-11.00
3251.73,43.00
3252.44,22.00
3253.15,0.00
3253.86,-32.00
3254.57,21.00
3255.28,42.00
3255.99,43.00
3256.70,21.00
3257.41,32.00
3258.11,32.00
3258.82,11.00
3259.53,43.00
3260.23,95.00
3260.94,106.00
3261.64,43.00
3262.35,0.00
3263.05,0.00
3263.76,42.00
3264.46,63.00
3265.16,85.00
3265.86,96.00
3266.56,84.00
3267.26,85.00
3267.97,0.00
3268.67,-22.00
3269.36,0.00
3270.06,21.00
3270.76,0.00
3271.46,52.00
3272.16,32.00
3272.85,0.00
