RamanShift,Intensity
180.91,344.00
183.74,445.00
186.56,530.00
189.39,752.00
192.21,1155.00
195.03,1705.00
197.84,2457.00
200.66,3462.00
203.47,4638.00
206.28,5845.00
209.09,7021.00
211.89,8037.00
214.70,8863.00
217.50,9615.00
220.30,10219.00
223.10,10504.00
225.89,10726.00
228.69,11055.00
231.48,11172.00
234.27,11277.00
237.05,11309.00
239.84,11193.00
242.62,11118.00
245.40,11118.00
248.18,10971.00
250.96,10663.00
253.73,10431.00
256.51,10272.00
259.28,9954.00
262.05,9668.00
264.81,9510.00
267.58,9425.00
270.34,9340.00
273.10,9297.00
275.86,9234.00
278.61,9255.00
281.37,9202.00
284.12,9117.00
286.87,9117.00
289.62,9202.00
292.36,9234.00
295.11,9180.00
297.85,9075.00
300.59,9096.00
303.33,9192.00
306.06,9181.00
308.80,9117.00
311.53,9096.00
314.26,9107.00
316.99,9065.00
319.71,9085.00
322.44,9086.00
325.16,9118.00
327.88,9117.00
330.59,9032.00
333.31,8958.00
336.02,8969.00
338.73,8969.00
341.44,8926.00
344.15,8884.00
346.86,8885.00
349.56,8959.00
352.26,9075.00
354.96,9043.00
357.66,8969.00
360.35,8884.00
363.05,8842.00
365.74,8990.00
368.43,9138.00
371.12,9244.00
373.80,9202.00
376.48,9255.00
379.17,9180.00
381.85,9223.00
384.52,9392.00
387.20,9393.00
389.87,9360.00
392.54,9361.00
395.21,9224.00
397.88,9308.00
400.55,9308.00
403.21,9361.00
405.87,9403.00
408.53,9498.00
411.19,9382.00
413.84,9276.00
416.50,9329.00
419.15,9266.00
421.80,9192.00
424.45,9287.00
427.10,9425.00
429.74,9287.00
432.38,9192.00
435.02,9202.00
437.66,9244.00
440.30,9191.00
442.93,9160.00
445.56,9244.00
448.19,9276.00
450.82,9435.00
453.45,9456.00
456.07,9393.00
458.70,9297.00
461.32,9330.00
463.94,9286.00
466.55,9308.00
469.17,9350.00
471.78,9371.00
474.39,9371.00
477.00,9297.00
479.61,9329.00
482.22,9403.00
484.82,9308.00
487.42,9435.00
490.02,9435.00
492.62,9361.00
495.21,9244.00
497.81,9118.00
500.40,9096.00
502.99,9053.00
505.58,9138.00
508.17,9223.00
510.75,9224.00
513.33,9192.00
515.91,9170.00
518.49,9170.00
521.07,9032.00
523.65,9054.00
526.22,9139.00
528.79,9170.00
531.36,9138.00
533.93,8980.00
536.49,8991.00
539.06,9138.00
541.62,9118.00
544.18,9128.00
546.74,9107.00
549.30,9053.00
551.85,9096.00
554.40,8969.00
556.95,9033.00
559.50,9139.00
562.05,9075.00
564.59,9064.00
567.14,8979.00
569.68,8906.00
572.22,8927.00
574.76,8831.00
577.29,8757.00
579.83,8905.00
582.36,8916.00
584.89,8747.00
587.42,8768.00
589.95,8694.00
592.47,8694.00
594.99,8726.00
597.52,8768.00
600.04,8704.00
602.55,8630.00
605.07,8567.00
607.58,8609.00
610.09,8683.00
612.60,8620.00
615.11,8598.00
617.62,8598.00
620.12,8513.00
622.63,8503.00
625.13,8482.00
627.63,8439.00
630.13,8345.00
632.62,8312.00
635.12,8249.00
637.61,8313.00
640.10,8355.00
642.59,8281.00
645.07,8165.00
647.56,8133.00
650.04,8291.00
652.52,8249.00
655.00,8281.00
657.48,8249.00
659.96,8080.00
662.43,8079.00
664.90,8111.00
667.37,8122.00
669.84,8027.00
672.31,8006.00
674.78,8133.00
677.24,8143.00
679.70,8090.00
682.16,8090.00
684.62,8143.00
687.08,8186.00
689.53,8079.00
691.98,8037.00
694.43,8005.00
696.88,8048.00
699.33,7995.00
701.78,7942.00
704.22,8037.00
706.66,7985.00
709.10,7868.00
711.54,7910.00
713.98,7984.00
716.42,8038.00
718.85,8122.00
721.28,8228.00
723.71,8418.00
726.14,8588.00
728.57,8578.00
730.99,8588.00
733.41,8631.00
735.83,8514.00
738.25,8292.00
740.67,8143.00
743.09,7952.00
745.50,7698.00
747.91,7455.00
750.33,7465.00
752.73,7454.00
755.14,7465.00
757.55,7412.00
759.95,7317.00
762.35,7328.00
764.75,7360.00
767.15,7317.00
769.55,7317.00
771.95,7349.00
774.34,7338.00
776.73,7327.00
779.12,7349.00
781.51,7360.00
783.90,7318.00
786.28,7264.00
788.67,7285.00
791.05,7264.00
793.43,7317.00
795.80,7349.00
798.18,7169.00
800.56,7116.00
802.93,7127.00
805.30,7032.00
807.67,7094.00
810.04,7042.00
812.40,7084.00
814.77,7137.00
817.13,7031.00
819.49,6936.00
821.85,6926.00
824.21,6894.00
826.57,6873.00
828.92,6893.00
831.27,6914.00
833.63,6830.00
835.98,6841.00
838.32,6851.00
840.67,6809.00
843.01,6756.00
845.36,6724.00
847.70,6724.00
850.04,6650.00
852.37,6597.00
854.71,6682.00
857.05,6586.00
859.38,6449.00
861.71,6470.00
864.04,6491.00
866.37,6470.00
868.69,6428.00
871.02,6396.00
873.34,6375.00
875.66,6418.00
877.98,6491.00
880.30,6438.00
882.62,6428.00
884.93,6364.00
887.24,6375.00
889.55,6375.00
891.86,6385.00
894.17,6353.00
896.48,6353.00
898.78,6343.00
901.09,6312.00
903.39,6279.00
905.69,6247.00
907.99,6279.00
910.28,6290.00
912.58,6248.00
914.87,6258.00
917.16,6237.00
919.45,6237.00
921.74,6353.00
924.03,6417.00
926.31,6321.00
928.60,6121.00
930.88,6089.00
933.16,6110.00
935.44,6152.00
937.72,6248.00
939.99,6163.00
942.26,6131.00
944.54,6174.00
946.81,6078.00
949.08,6004.00
951.34,6057.00
953.61,6057.00
955.87,6046.00
958.14,6153.00
960.40,6163.00
962.66,6057.00
964.92,6068.00
967.17,5962.00
969.43,5941.00
971.68,5814.00
973.93,5729.00
976.18,5750.00
978.43,5728.00
980.68,5623.00
982.92,5623.00
985.17,5634.00
987.41,5634.00
989.65,5623.00
991.89,5549.00
994.12,5453.00
996.36,5549.00
998.59,5613.00
1000.83,5559.00
1003.06,5485.00
1005.29,5560.00
1007.51,5634.00
1009.74,5634.00
1011.97,5591.00
1014.19,5623.00
1016.41,5644.00
1018.63,5612.00
1020.85,5538.00
1023.07,5527.00
1025.28,5581.00
1027.49,5559.00
1029.71,5549.00
1031.92,5581.00
1034.13,5538.00
1036.33,5538.00
1038.54,5485.00
1040.74,5432.00
1042.95,5389.00
1045.15,5326.00
1047.35,5326.00
1049.55,5306.00
1051.74,5273.00
1053.94,5337.00
1056.13,5358.00
1058.32,5326.00
1060.51,5358.00
1062.70,5274.00
1064.89,5253.00
1067.08,5358.00
1069.26,5326.00
1071.44,5241.00
1073.63,5252.00
1075.81,5273.00
1077.98,5284.00
1080.16,5220.00
1082.34,5241.00
1084.51,5294.00
1086.68,5147.00
1088.85,5125.00
1091.02,5147.00
1093.19,5168.00
1095.35,5030.00
1097.52,5030.00
1099.68,5062.00
1101.84,5072.00
1104.00,5040.00
1106.16,5072.00
1108.32,5104.00
1110.48,5136.00
1112.63,5083.00
1114.78,5061.00
1116.93,5072.00
1119.08,5030.00
1121.23,5029.00
1123.38,4998.00
1125.52,5030.00
1127.67,4934.00
1129.81,4776.00
1131.95,4818.00
1134.09,4860.00
1136.22,4818.00
1138.36,4776.00
1140.50,4871.00
1142.63,4902.00
1144.76,4850.00
1146.89,4829.00
1149.02,4861.00
1151.15,4861.00
1153.27,4786.00
1155.40,4776.00
1157.52,4702.00
1159.64,4733.00
1161.76,4712.00
1163.88,4670.00
1165.99,4701.00
1168.11,4648.00
1170.22,4564.00
1172.34,4670.00
1174.45,4733.00
1176.56,4712.00
1178.66,4628.00
1180.77,4564.00
1182.88,4522.00
1184.98,4564.00
1187.08,4564.00
1189.18,4627.00
1191.28,4733.00
1193.38,4723.00
1195.47,4701.00
1197.57,4648.00
1199.66,4585.00
1201.75,4511.00
1203.85,4585.00
1205.93,4585.00
1208.02,4532.00
1210.11,4532.00
1212.19,4468.00
1214.28,4479.00
1216.36,4542.00
1218.44,4564.00
1220.52,4627.00
1222.59,4574.00
1224.67,4490.00
1226.74,4479.00
1228.82,4501.00
1230.89,4458.00
1232.96,4458.00
1235.03,4564.00
1237.10,4501.00
1239.16,4447.00
1241.23,4479.00
1243.29,4490.00
1245.35,4564.00
1247.41,4595.00
1249.47,4458.00
1251.53,4362.00
1253.58,4436.00
1255.64,4352.00
1257.69,4373.00
1259.74,4394.00
1261.79,4320.00
1263.84,4374.00
1265.89,4331.00
1267.93,4267.00
1269.98,4289.00
1272.02,4288.00
1274.06,4225.00
1276.10,4193.00
1278.14,4161.00
1280.18,4161.00
1282.22,4151.00
1284.25,4151.00
1286.28,4151.00
1288.32,4130.00
1290.35,4129.00
1292.38,4172.00
1294.40,4087.00
1296.43,4173.00
1298.46,4172.00
1300.48,4183.00
1302.50,4193.00
1304.52,4161.00
1306.54,4108.00
1308.56,4098.00
1310.58,4098.00
1312.59,4141.00
1314.60,4236.00
1316.62,4236.00
1318.63,4257.00
1320.64,4373.00
1322.65,4416.00
1324.65,4437.00
1326.66,4416.00
1328.66,4500.00
1330.66,4479.00
1332.67,4437.00
1334.67,4416.00
1336.66,4480.00
1338.66,4543.00
1340.66,4395.00
1342.65,4225.00
1344.65,4161.00
1346.64,4140.00
1348.63,4119.00
1350.62,4087.00
1352.60,4077.00
1354.59,4003.00
1356.57,3970.00
1358.56,3970.00
1360.54,4013.00
1362.52,3939.00
1364.50,3960.00
1366.48,3971.00
1368.46,3929.00
1370.43,3939.00
1372.41,3939.00
1374.38,3918.00
1376.35,3908.00
1378.32,3908.00
1380.29,3928.00
1382.25,3908.00
1384.22,3844.00
1386.18,3770.00
1388.15,3759.00
1390.11,3759.00
1392.07,3770.00
1394.03,3780.00
1395.99,3886.00
1397.94,3918.00
1399.90,3716.00
1401.85,3738.00
1403.80,3802.00
1405.76,3802.00
1407.71,3802.00
1409.65,3822.00
1411.60,3780.00
1413.55,3674.00
1415.49,3717.00
1417.44,3791.00
1419.38,3728.00
1421.32,3600.00
1423.26,3505.00
1425.19,3632.00
1427.13,3654.00
1429.07,3611.00
1431.00,3717.00
1432.93,3654.00
1434.86,3526.00
1436.79,3527.00
1438.72,3526.00
1440.65,3600.00
1442.57,3568.00
1444.50,3611.00
1446.42,3611.00
1448.34,3601.00
1450.26,3558.00
1452.18,3537.00
1454.10,3537.00
1456.02,3536.00
1457.93,3505.00
1459.85,3483.00
1461.76,3441.00
1463.67,3462.00
1465.58,3420.00
1467.49,3410.00
1469.40,3420.00
1471.31,3473.00
1473.21,3505.00
1475.11,3463.00
1477.02,3442.00
1478.92,3463.00
1480.82,3389.00
1482.72,3293.00
1484.61,3336.00
1486.51,3357.00
1488.40,3325.00
1490.30,3304.00
1492.19,3282.00
1494.08,3283.00
1495.97,3240.00
1497.86,3336.00
1499.74,3368.00
1501.63,3293.00
1503.51,3229.00
1505.40,3261.00
1507.28,3273.00
1509.16,3240.00
1511.04,3220.00
1512.92,3177.00
1514.79,3145.00
1516.67,3145.00
1518.54,3230.00
1520.42,3208.00
1522.29,3177.00
1524.16,3145.00
1526.03,3167.00
1527.89,3230.00
1529.76,3250.00
1531.63,3166.00
1533.49,3135.00
1535.35,3209.00
1537.21,3145.00
1539.07,3166.00
1540.93,3102.00
1542.79,3060.00
1544.65,3103.00
1546.50,3082.00
1548.36,3060.00
1550.21,3103.00
1552.06,3134.00
1553.91,3050.00
1555.76,3018.00
1557.61,3124.00
1559.45,3092.00
1561.30,2997.00
1563.14,3028.00
1564.98,3007.00
1566.82,3061.00
1568.67,3102.00
1570.50,3092.00
1572.34,2944.00
1574.18,2933.00
1576.01,2986.00
1577.85,2922.00
1579.68,2901.00
1581.51,2944.00
1583.34,3018.00
1585.17,2944.00
1587.00,2902.00
1588.82,2891.00
1590.65,2901.00
1592.47,2848.00
1594.30,2785.00
1596.12,2859.00
1597.94,2912.00
1599.76,2880.00
1601.57,2774.00
1603.39,2827.00
1605.21,2912.00
1607.02,2902.00
1608.83,2764.00
1610.64,2775.00
1612.45,2795.00
1614.26,2817.00
1616.07,2795.00
1617.88,2722.00
1619.68,2764.00
1621.49,2722.00
1623.29,2679.00
1625.09,2722.00
1626.89,2711.00
1628.69,2732.00
1630.49,2689.00
1632.29,2605.00
1634.08,2647.00
1635.88,2669.00
1637.67,2626.00
1639.46,2605.00
1641.25,2584.00
1643.04,2584.00
1644.83,2574.00
1646.62,2595.00
1648.41,2574.00
1650.19,2552.00
1651.97,2584.00
1653.76,2616.00
1655.54,2626.00
1657.32,2637.00
1659.10,2573.00
1660.88,2563.00
1662.65,2531.00
1664.43,2478.00
1666.20,2531.00
1667.97,2531.00
1669.75,2520.00
1671.52,2499.00
1673.29,2468.00
1675.05,2446.00
1676.82,2414.00
1678.59,2457.00
1680.35,2425.00
1682.11,2393.00
1683.88,2330.00
1685.64,2393.00
1687.40,2456.00
1689.16,2414.00
1690.91,2298.00
1692.67,2362.00
1694.42,2404.00
1696.18,2404.00
1697.93,2404.00
1699.68,2319.00
1701.43,2308.00
1703.18,2341.00
1704.93,2298.00
1706.68,2298.00
1708.42,2309.00
1710.17,2234.00
1711.91,2245.00
1713.65,2319.00
1715.39,2340.00
1717.13,2256.00
1718.87,2245.00
1720.61,2245.00
1722.35,2182.00
1724.08,2181.00
1725.81,2182.00
1727.55,2170.00
1729.28,2170.00
1731.01,2171.00
1732.74,2234.00
1734.47,2214.00
1736.19,2139.00
1737.92,2139.00
1739.64,2139.00
1741.37,2181.00
1743.09,2139.00
1744.81,2128.00
1746.53,2076.00
1748.25,2076.00
1749.97,2097.00
1751.68,2117.00
1753.40,2064.00
1755.11,2044.00
1756.83,2076.00
1758.54,2033.00
1760.25,2044.00
1761.96,2107.00
1763.67,2086.00
1765.38,2054.00
1767.08,2117.00
1768.79,2150.00
1770.49,2012.00
1772.19,2033.00
1773.90,2012.00
1775.60,2054.00
1777.30,2096.00
1778.99,2118.00
1780.69,2118.00
1782.39,2054.00
1784.08,1991.00
1785.78,1991.00
1787.47,2012.00
1789.16,1980.00
1790.85,1970.00
1792.54,1991.00
1794.23,1949.00
1795.91,1949.00
1797.60,1991.00
1799.28,2033.00
1800.97,2012.00
1802.65,1928.00
1804.33,1948.00
1806.01,1970.00
1807.69,1959.00
1809.37,1927.00
1811.05,1906.00
1812.72,1949.00
1814.40,1949.00
1816.07,1885.00
1817.74,1906.00
1819.41,1885.00
1821.08,1864.00
1822.75,1938.00
1824.42,1927.00
1826.09,1864.00
1827.75,1864.00
1829.42,1885.00
1831.08,1896.00
1832.74,1949.00
1834.40,1906.00
1836.06,1853.00
1837.72,1885.00
1839.38,1832.00
1841.04,1800.00
1842.69,1821.00
1844.35,1822.00
1846.00,1864.00
1847.65,1864.00
1849.30,1906.00
1850.95,1864.00
1852.60,1768.00
1854.25,1821.00
1855.90,1758.00
1857.54,1705.00
1859.19,1758.00
1860.83,1779.00
1862.47,1737.00
1864.12,1737.00
1865.76,1757.00
1867.40,1800.00
1869.03,1769.00
1870.67,1737.00
1872.31,1673.00
1873.94,1694.00
1875.57,1694.00
1877.21,1705.00
1878.84,1779.00
1880.47,1757.00
1882.10,1736.00
1883.73,1705.00
1885.35,1673.00
1886.98,1705.00
1888.61,1737.00
1890.23,1631.00
1891.85,1620.00
1893.47,1620.00
1895.09,1620.00
1896.71,1673.00
1898.33,1641.00
1899.95,1631.00
1901.57,1630.00
1903.18,1578.00
1904.80,1588.00
1906.41,1610.00
1908.02,1641.00
1909.63,1641.00
1911.24,1641.00
1912.85,1609.00
1914.46,1610.00
1916.07,1589.00
1917.67,1642.00
1919.28,1705.00
1920.88,1652.00
1922.48,1567.00
1924.08,1567.00
1925.68,1589.00
1927.28,1546.00
1928.88,1525.00
1930.48,1504.00
1932.07,1546.00
1933.67,1557.00
1935.26,1504.00
1936.86,1451.00
1938.45,1546.00
1940.04,1578.00
1941.63,1525.00
1943.22,1535.00
1944.80,1546.00
1946.39,1525.00
1947.98,1504.00
1949.56,1440.00
1951.14,1419.00
1952.73,1450.00
1954.31,1493.00
1955.89,1525.00
1957.47,1461.00
1959.05,1440.00
1960.62,1493.00
1962.20,1482.00
1963.77,1482.00
1965.35,1450.00
1966.92,1441.00
1968.49,1441.00
1970.06,1441.00
1971.63,1440.00
1973.20,1398.00
1974.77,1409.00
1976.34,1419.00
1977.90,1409.00
1979.47,1398.00
1981.03,1472.00
1982.59,1461.00
1984.15,1377.00
1985.71,1376.00
1987.27,1387.00
1988.83,1398.00
1990.39,1355.00
1991.94,1377.00
1993.50,1356.00
1995.05,1419.00
1996.61,1441.00
1998.16,1398.00
1999.71,1376.00
2001.26,1398.00
2002.81,1398.00
2004.36,1356.00
2005.91,1313.00
2007.45,1313.00
2009.00,1302.00
2010.54,1302.00
2012.08,1324.00
2013.62,1335.00
2015.17,1376.00
2016.71,1398.00
2018.24,1355.00
2019.78,1377.00
2021.32,1356.00
2022.85,1376.00
2024.39,1356.00
2025.92,1292.00
2027.46,1260.00
2028.99,1271.00
2030.52,1292.00
2032.05,1292.00
2033.58,1260.00
2035.10,1250.00
2036.63,1238.00
2038.16,1238.00
2039.68,1292.00
2041.21,1335.00
2042.73,1356.00
2044.25,1313.00
2045.77,1281.00
2047.29,1271.00
2048.81,1250.00
2050.33,1250.00
2051.84,1260.00
2053.36,1271.00
2054.87,1260.00
2056.39,1207.00
2057.90,1165.00
2059.41,1155.00
2060.92,1165.00
2062.43,1154.00
2063.94,1186.00
2065.45,1260.00
2066.95,1302.00
2068.46,1271.00
2069.96,1207.00
2071.47,1186.00
2072.97,1143.00
2074.47,1155.00
2075.97,1176.00
2077.47,1176.00
2078.97,1165.00
2080.47,1143.00
2081.96,1143.00
2083.46,1186.00
2084.95,1218.00
2086.45,1175.00
2087.94,1186.00
2089.43,1165.00
2090.92,1112.00
2092.41,1081.00
2093.90,1154.00
2095.39,1228.00
2096.88,1176.00
2098.36,1143.00
2099.85,1143.00
2101.33,1154.00
2102.81,1080.00
2104.30,1123.00
2105.78,1102.00
2107.26,1081.00
2108.74,1049.00
2110.21,1048.00
2111.69,1048.00
2113.17,1070.00
2114.64,1059.00
2116.12,1080.00
2117.59,1112.00
2119.06,1080.00
2120.53,1038.00
2122.00,1027.00
2123.47,1070.00
2124.94,1069.00
2126.41,1016.00
2127.87,1049.00
2129.34,1006.00
2130.80,996.00
2132.27,1006.00
2133.73,1090.00
2135.19,1080.00
2136.65,1070.00
2138.11,1049.00
2139.57,1048.00
2141.03,1048.00
2142.48,974.00
2143.94,985.00
2145.39,1017.00
2146.85,995.00
2148.30,974.00
2149.75,964.00
2151.20,932.00
2152.65,975.00
2154.10,1017.00
2155.55,1080.00
2157.00,1080.00
2158.44,1081.00
2159.89,1006.00
2161.33,985.00
2162.78,1017.00
2164.22,964.00
2165.66,932.00
2167.10,985.00
2168.54,964.00
2169.98,932.00
2171.42,975.00
2172.85,975.00
2174.29,942.00
2175.72,985.00
2177.16,995.00
2178.59,1006.00
2180.02,1006.00
2181.45,963.00
2182.88,900.00
2184.31,889.00
2185.74,858.00
2187.17,847.00
2188.59,889.00
2190.02,932.00
2191.44,890.00
2192.87,911.00
2194.29,921.00
2195.71,953.00
2197.13,921.00
2198.55,900.00
2199.97,890.00
2201.39,889.00
2202.81,900.00
2204.22,900.00
2205.64,911.00
2207.05,910.00
2208.46,911.00
2209.88,942.00
2211.29,932.00
2212.70,857.00
2214.11,857.00
2215.52,816.00
2216.92,900.00
2218.33,932.00
2219.74,932.00
2221.14,889.00
2222.54,847.00
2223.95,869.00
2225.35,890.00
2226.75,868.00
2228.15,868.00
2229.55,837.00
2230.95,869.00
2232.35,879.00
2233.74,890.00
2235.14,805.00
2236.53,826.00
2237.93,826.00
2239.32,868.00
2240.71,868.00
2242.10,848.00
2243.49,837.00
2244.88,783.00
2246.27,794.00
2247.66,826.00
2249.04,826.00
2250.43,815.00
2251.81,805.00
2253.20,783.00
2254.58,847.00
2255.96,837.00
2257.34,783.00
2258.72,763.00
2260.10,763.00
2261.48,784.00
2262.86,794.00
2264.23,762.00
2265.61,805.00
2266.98,805.00
2268.36,773.00
2269.73,805.00
2271.10,784.00
2272.47,762.00
2273.84,773.00
2275.21,805.00
2276.58,816.00
2277.95,731.00
2279.31,741.00
2280.68,762.00
2282.05,731.00
2283.41,720.00
2284.77,762.00
2286.13,773.00
2287.50,730.00
2288.86,699.00
2290.22,709.00
2291.57,709.00
2292.93,752.00
2294.29,752.00
2295.64,762.00
2297.00,742.00
2298.35,720.00
2299.71,720.00
2301.06,709.00
2302.41,731.00
2303.76,762.00
2305.11,762.00
2306.46,741.00
2307.81,721.00
2309.15,762.00
2310.50,794.00
2311.84,762.00
2313.19,741.00
2314.53,731.00
2315.87,699.00
2317.22,742.00
2318.56,741.00
2319.90,625.00
2321.24,699.00
2322.57,710.00
2323.91,731.00
2325.25,720.00
2326.58,709.00
2327.92,698.00
2329.25,720.00
2330.58,678.00
2331.91,689.00
2333.25,689.00
2334.58,635.00
2335.90,657.00
2337.23,678.00
2338.56,657.00
2339.89,688.00
2341.21,698.00
2342.54,667.00
2343.86,635.00
2345.19,667.00
2346.51,667.00
2347.83,657.00
2349.15,635.00
2350.47,635.00
2351.79,699.00
2353.11,699.00
2354.42,635.00
2355.74,646.00
2357.06,677.00
2358.37,699.00
2359.68,678.00
2361.00,635.00
2362.31,593.00
2363.62,614.00
2364.93,624.00
2366.24,635.00
2367.55,667.00
2368.86,604.00
2370.16,583.00
2371.47,571.00
2372.77,593.00
2374.08,614.00
2375.38,582.00
2376.68,541.00
2377.98,614.00
2379.29,635.00
2380.59,572.00
2381.88,583.00
2383.18,657.00
2384.48,635.00
2385.78,593.00
2387.07,519.00
2388.37,562.00
2389.66,614.00
2390.95,614.00
2392.25,593.00
2393.54,540.00
2394.83,561.00
2396.12,540.00
2397.41,551.00
2398.70,615.00
2399.98,614.00
2401.27,582.00
2402.55,529.00
2403.84,529.00
2405.12,550.00
2406.41,562.00
2407.69,529.00
2408.97,550.00
2410.25,540.00
2411.53,540.00
2412.81,561.00
2414.09,530.00
2415.36,519.00
2416.64,550.00
2417.91,550.00
2419.19,509.00
2420.46,508.00
2421.74,572.00
2423.01,540.00
2424.28,519.00
2425.55,530.00
2426.82,509.00
2428.09,487.00
2429.36,530.00
2430.62,551.00
2431.89,551.00
2433.15,508.00
2434.42,508.00
2435.68,540.00
2436.94,561.00
2438.21,551.00
2439.47,551.00
2440.73,508.00
2441.99,487.00
2443.25,519.00
2444.51,530.00
2445.76,561.00
2447.02,529.00
2448.27,572.00
2449.53,498.00
2450.78,498.00
2452.03,498.00
2453.29,519.00
2454.54,529.00
2455.79,519.00
2457.04,498.00
2458.29,497.00
2459.54,551.00
2460.78,529.00
2462.03,519.00
2463.27,497.00
2464.52,508.00
2465.76,487.00
2467.01,508.00
2468.25,498.00
2469.49,498.00
2470.73,498.00
2471.97,455.00
2473.21,508.00
2474.45,529.00
2475.69,444.00
2476.92,434.00
2478.16,477.00
2479.39,466.00
2480.63,423.00
2481.86,413.00
2483.09,434.00
2484.32,498.00
2485.56,466.00
2486.79,445.00
2488.02,445.00
2489.24,487.00
2490.47,444.00
2491.70,466.00
2492.92,445.00
2494.15,424.00
2495.37,434.00
2496.60,424.00
2497.82,381.00
2499.04,445.00
2500.26,455.00
2501.48,423.00
2502.70,424.00
2503.92,445.00
2505.14,466.00
2506.36,424.00
2507.58,466.00
2508.79,445.00
2510.01,402.00
2511.22,360.00
2512.43,392.00
2513.64,392.00
2514.86,445.00
2516.07,413.00
2517.28,382.00
2518.49,434.00
2519.70,413.00
2520.90,413.00
2522.11,423.00
2523.32,434.00
2524.52,392.00
2525.73,360.00
2526.93,360.00
2528.13,403.00
2529.33,435.00
2530.54,392.00
2531.74,392.00
2532.94,424.00
2534.14,423.00
2535.33,360.00
2536.53,360.00
2537.73,381.00
2538.92,424.00
2540.12,413.00
2541.31,423.00
2542.51,413.00
2543.70,413.00
2544.89,403.00
2546.08,381.00
2547.27,381.00
2548.46,371.00
2549.65,392.00
2550.84,381.00
2552.03,360.00
2553.21,402.00
2554.40,382.00
2555.58,339.00
2556.77,370.00
2557.95,338.00
2559.13,382.00
2560.31,371.00
2561.50,349.00
2562.68,392.00
2563.85,381.00
2565.03,360.00
2566.21,371.00
2567.39,382.00
2568.56,392.00
2569.74,360.00
2570.91,297.00
2572.09,318.00
2573.26,297.00
2574.43,297.00
2575.61,360.00
2576.78,413.00
2577.95,392.00
2579.12,402.00
2580.29,360.00
2581.45,328.00
2582.62,349.00
2583.79,360.00
2584.95,339.00
2586.12,339.00
2587.28,349.00
2588.44,371.00
2589.61,339.00
2590.77,328.00
2591.93,349.00
2593.09,329.00
2594.25,349.00
2595.41,329.00
2596.56,339.00
2597.72,339.00
2598.88,317.00
2600.03,318.00
2601.19,297.00
2602.34,339.00
2603.50,339.00
2604.65,382.00
2605.80,360.00
2606.95,360.00
2608.10,381.00
2609.25,371.00
2610.40,360.00
2611.55,297.00
2612.70,296.00
2613.84,307.00
2614.99,318.00
2616.13,296.00
2617.28,286.00
2618.42,286.00
2619.56,329.00
2620.71,317.00
2621.85,328.00
2622.99,318.00
2624.13,317.00
2625.27,317.00
2626.40,350.00
2627.54,297.00
2628.68,286.00
2629.81,328.00
2630.95,371.00
2632.08,317.00
2633.22,307.00
2634.35,329.00
2635.48,307.00
2636.61,296.00
2637.74,317.00
2638.87,318.00
2640.00,297.00
2641.13,275.00
2642.26,307.00
2643.39,318.00
2644.51,275.00
2645.64,265.00
2646.76,286.00
2647.89,265.00
2649.01,286.00
2650.13,339.00
2651.25,360.00
2652.38,350.00
2653.50,275.00
2654.62,254.00
2655.73,265.00
2656.85,286.00
2657.97,296.00
2659.09,286.00
2660.20,276.00
2661.32,233.00
2662.43,254.00
2663.55,265.00
2664.66,265.00
2665.77,254.00
2666.88,275.00
2667.99,275.00
2669.10,307.00
2670.21,328.00
2671.32,296.00
2672.43,264.00
2673.54,286.00
2674.64,276.00
2675.75,264.00
2676.85,254.00
2677.96,254.00
2679.06,296.00
2680.16,296.00
2681.26,297.00
2682.37,255.00
2683.47,222.00
2684.57,296.00
2685.66,297.00
2686.76,286.00
2687.86,222.00
2688.96,243.00
2690.05,265.00
2691.15,264.00
2692.24,233.00
2693.34,254.00
2694.43,286.00
2695.52,286.00
2696.62,296.00
2697.71,307.00
2698.80,255.00
2699.89,244.00
2700.98,254.00
2702.06,286.00
2703.15,254.00
2704.24,222.00
2705.32,275.00
2706.41,275.00
2707.49,254.00
2708.58,212.00
2709.66,212.00
2710.74,265.00
2711.83,254.00
2712.91,233.00
2713.99,212.00
2715.07,211.00
2716.15,211.00
2717.22,158.00
2718.30,190.00
2719.38,265.00
2720.45,296.00
2721.53,244.00
2722.60,222.00
2723.68,233.00
2724.75,244.00
2725.82,243.00
2726.89,276.00
2727.97,254.00
2729.04,254.00
2730.11,223.00
2731.17,233.00
2732.24,255.00
2733.31,243.00
2734.38,233.00
2735.44,254.00
2736.51,212.00
2737.57,201.00
2738.64,233.00
2739.70,255.00
2740.76,190.00
2741.82,222.00
2742.89,243.00
2743.95,190.00
2745.01,190.00
2746.07,201.00
2747.12,212.00
2748.18,180.00
2749.24,212.00
2750.29,243.00
2751.35,201.00
2752.40,191.00
2753.46,170.00
2754.51,222.00
2755.57,201.00
2756.62,201.00
2757.67,233.00
2758.72,222.00
2759.77,222.00
2760.82,233.00
2761.87,212.00
2762.91,169.00
2763.96,222.00
2765.01,201.00
2766.05,202.00
2767.10,212.00
2768.14,191.00
2769.19,148.00
2770.23,222.00
2771.27,201.00
2772.31,191.00
2773.35,233.00
2774.40,212.00
2775.43,149.00
2776.47,180.00
2777.51,202.00
2778.55,170.00
2779.59,201.00
2780.62,222.00
2781.66,222.00
2782.69,254.00
2783.73,191.00
2784.76,190.00
2785.79,169.00
2786.82,159.00
2787.85,127.00
2788.89,159.00
2789.92,170.00
2790.94,170.00
2791.97,180.00
2793.00,148.00
2794.03,170.00
2795.05,169.00
2796.08,180.00
2797.11,170.00
2798.13,149.00
2799.15,191.00
2800.18,180.00
2801.20,159.00
2802.22,169.00
2803.24,191.00
2804.26,170.00
2805.28,180.00
2806.30,180.00
2807.32,191.00
2808.34,190.00
2809.35,169.00
2810.37,180.00
2811.39,170.00
2812.40,138.00
2813.41,138.00
2814.43,127.00
2815.44,159.00
2816.45,212.00
2817.46,180.00
2818.48,212.00
2819.49,180.00
2820.49,95.00
2821.50,138.00
2822.51,191.00
2823.52,180.00
2824.53,222.00
2825.53,191.00
2826.54,128.00
2827.54,148.00
2828.55,159.00
2829.55,180.00
2830.55,169.00
2831.55,137.00
2832.56,95.00
2833.56,106.00
2834.56,169.00
2835.56,169.00
2836.56,201.00
2837.55,170.00
2838.55,148.00
2839.55,117.00
2840.54,117.00
2841.54,127.00
2842.53,137.00
2843.53,128.00
2844.52,138.00
2845.51,148.00
2846.51,149.00
2847.50,159.00
2848.49,159.00
2849.48,180.00
2850.47,137.00
2851.46,127.00
2852.45,137.00
2853.43,128.00
2854.42,169.00
2855.41,169.00
2856.39,169.00
2857.38,106.00
2858.36,106.00
2859.34,127.00
2860.33,127.00
2861.31,127.00
2862.29,128.00
2863.27,149.00
2864.25,117.00
2865.23,159.00
2866.21,127.00
2867.19,201.00
2868.17,180.00
2869.14,127.00
2870.12,85.00
2871.09,63.00
2872.07,106.00
2873.04,137.00
2874.02,170.00
2874.99,212.00
2875.96,180.00
2876.93,170.00
2877.91,127.00
2878.88,127.00
2879.85,148.00
2880.82,169.00
2881.78,127.00
2882.75,95.00
2883.72,137.00
2884.69,106.00
2885.65,137.00
2886.62,117.00
2887.58,85.00
2888.55,138.00
2889.51,127.00
2890.47,138.00
2891.43,149.00
2892.39,159.00
2893.36,138.00
2894.31,127.00
2895.27,190.00
2896.23,148.00
2897.19,148.00
2898.15,170.00
2899.11,191.00
2900.06,169.00
2901.02,106.00
2901.97,116.00
2902.93,127.00
2903.88,148.00
2904.83,127.00
2905.79,127.00
2906.74,137.00
2907.69,127.00
2908.64,169.00
2909.59,127.00
2910.54,127.00
2911.49,106.00
2912.43,148.00
2913.38,116.00
2914.33,127.00
2915.27,117.00
2916.22,106.00
2917.16,64.00
2918.11,42.00
2919.05,96.00
2919.99,202.00
2920.94,212.00
2921.88,159.00
2922.82,117.00
2923.76,95.00
2924.70,127.00
2925.64,106.00
2926.58,84.00
2927.51,105.00
2928.45,105.00
2929.39,137.00
2930.32,149.00
2931.26,149.00
2932.19,158.00
2933.13,169.00
2934.06,159.00
2934.99,148.00
2935.92,106.00
2936.86,84.00
2937.79,148.00
2938.72,201.00
2939.65,138.00
2940.57,159.00
2941.50,116.00
2942.43,96.00
2943.36,105.00
2944.28,116.00
2945.21,170.00
2946.13,127.00
2947.06,106.00
2947.98,64.00
2948.91,95.00
2949.83,117.00
2950.75,138.00
2951.67,148.00
2952.59,127.00
2953.51,127.00
2954.43,191.00
2955.35,201.00
2956.27,148.00
2957.19,85.00
2958.10,116.00
2959.02,170.00
2959.94,159.00
2960.85,127.00
2961.77,43.00
2962.68,63.00
2963.59,95.00
2964.51,116.00
2965.42,127.00
2966.33,95.00
2967.24,106.00
2968.15,127.00
2969.06,159.00
2969.97,117.00
2970.88,84.00
2971.78,85.00
2972.69,96.00
2973.60,138.00
2974.50,137.00
2975.41,116.00
2976.31,106.00
2977.22,95.00
2978.12,84.00
2979.02,95.00
2979.93,64.00
2980.83,74.00
2981.73,64.00
2982.63,42.00
2983.53,63.00
2984.43,53.00
2985.33,53.00
2986.22,84.00
2987.12,106.00
2988.02,158.00
2988.91,127.00
2989.81,127.00
2990.70,85.00
2991.60,53.00
2992.49,85.00
2993.38,85.00
2994.28,84.00
2995.17,84.00
2996.06,53.00
2996.95,63.00
2997.84,74.00
2998.73,84.00
2999.62,85.00
3000.51,95.00
3001.40,117.00
3002.28,127.00
3003.17,96.00
3004.05,64.00
3004.94,106.00
3005.82,106.00
3006.71,85.00
3007.59,64.00
3008.47,74.00
3009.36,85.00
3010.24,53.00
3011.12,64.00
3012.00,116.00
3012.88,32.00
3013.76,32.00
3014.64,74.00
3015.51,64.00
3016.39,95.00
3017.27,64.00
3018.14,74.00
3019.02,85.00
3019.89,53.00
3020.77,64.00
3021.64,43.00
3022.52,21.00
3023.39,74.00
3024.26,42.00
3025.13,42.00
3026.00,85.00
3026.87,64.00
3027.74,53.00
3028.61,42.00
3029.48,42.00
3030.35,75.00
3031.21,74.00
3032.08,84.00
3032.95,127.00
3033.81,95.00
3034.68,74.00
3035.54,64.00
3036.40,64.00
3037.27,74.00
3038.13,74.00
3038.99,95.00
3039.85,64.00
3040.71,117.00
3041.57,159.00
3042.43,117.00
3043.29,43.00
3044.15,42.00
3045.01,64.00
3045.86,85.00
3046.72,85.00
3047.58,32.00
3048.43,0.00
3049.29,42.00
3050.14,43.00
3050.99,21.00
3051.85,10.00
3052.70,53.00
3053.55,74.00
3054.40,-11.00
3055.25,-21.00
3056.10,43.00
3056.95,64.00
3057.80,63.00
3058.65,43.00
3059.50,64.00
3060.34,53.00
3061.19,42.00
3062.04,43.00
3062.88,53.00
3063.73,0.00
3064.57,0.00
3065.42,53.00
3066.26,106.00
3067.10,75.00
3067.94,85.00
3068.78,32.00
3069.63,63.00
3070.47,63.00
3071.31,63.00
3072.14,84.00
3072.98,96.00
3073.82,137.00
3074.66,75.00
3075.49,32.00
3076.33,53.00
3077.17,63.00
3078.00,32.00
3078.83,53.00
3079.67,74.00
3080.50,106.00
3081.33,127.00
3082.17,0.00
3083.00,10.00
3083.83,32.00
3084.66,0.00
3085.49,32.00
3086.32,85.00
3087.15,43.00
3087.97,74.00
3088.80,74.00
3089.63,42.00
3090.46,21.00
3091.28,-21.00
3092.11,0.00
3092.93,32.00
3093.75,64.00
3094.58,22.00
3095.40,43.00
3096.22,63.00
3097.05,21.00
3097.87,52.00
3098.69,85.00
3099.51,95.00
3100.33,85.00
3101.15,84.00
3101.96,21.00
3102.78,64.00
3103.60,64.00
3104.42,22.00
3105.23,10.00
3106.05,10.00
3106.86,42.00
3107.68,117.00
3108.49,53.00
3109.30,74.00
3110.12,63.00
3110.93,95.00
3111.74,32.00
3112.55,42.00
3113.36,64.00
3114.17,53.00
3114.98,21.00
3115.79,32.00
3116.60,53.00
3117.40,53.00
3118.21,42.00
3119.02,63.00
3119.82,85.00
3120.63,85.00
3121.43,21.00
3122.24,43.00
3123.04,63.00
3123.84,32.00
3124.65,42.00
3125.45,43.00
3126.25,-21.00
3127.05,-42.00
3127.85,53.00
3128.65,116.00
3129.45,127.00
3130.25,74.00
3131.05,63.00
3131.84,53.00
3132.64,32.00
3133.44,63.00
3134.23,95.00
3135.03,64.00
3135.82,21.00
3136.62,75.00
3137.41,96.00
3138.20,63.00
3139.00,42.00
3139.79,63.00
3140.58,74.00
3141.37,21.00
3142.16,42.00
3142.95,52.00
3143.74,64.00
3144.53,11.00
3145.32,11.00
3146.10,32.00
3146.89,-32.00
3147.68,11.00
3148.46,43.00
3149.25,0.00
3150.03,-10.00
3150.82,53.00
3151.60,74.00
3152.38,21.00
3153.17,42.00
3153.95,32.00
3154.73,0.00
3155.51,0.00
3156.29,53.00
3157.07,21.00
3157.85,21.00
3158.63,32.00
3159.41,42.00
3160.18,32.00
3160.96,74.00
3161.74,85.00
3162.51,42.00
3163.29,10.00
3164.06,64.00
3164.84,138.00
3165.61,117.00
3166.38,106.00
3167.16,42.00
3167.93,21.00
3168.70,21.00
3169.47,11.00
3170.24,-21.00
3171.01,42.00
3171.78,85.00
3172.55,64.00
3173.32,10.00
3174.09,-32.00
3174.85,43.00
3175.62,74.00
3176.39,22.00
3177.15,0.00
3177.92,0.00
3178.68,21.00
3179.45,-10.00
3180.21,32.00
3180.97,53.00
3181.73,-21.00
3182.50,-32.00
3183.26,-32.00
3184.02,-21.00
3184.78,32.00
3185.54,21.00
3186.30,63.00
3187.05,127.00
3187.81,74.00
3188.57,42.00
3189.33,42.00
3190.08,32.00
3190.84,53.00
3191.59,85.00
3192.35,64.00
3193.10,74.00
3193.86,63.00
3194.61,10.00
3195.36,-32.00
3196.12,-42.00
3196.87,-21.00
3197.62,-11.00
3198.37,-11.00
3199.12,21.00
3199.87,32.00
3200.62,42.00
3201.36,53.00
3202.11,64.00
3202.86,-11.00
3203.61,0.00
3204.35,42.00
3205.10,95.00
3205.84,53.00
3206.59,21.00
3207.33,22.00
3208.08,0.00
3208.82,0.00
3209.56,0.00
3210.30,-64.00
3211.05,-43.00
3211.79,63.00
3212.53,85.00
3213.27,42.00
3214.01,42.00
3214.75,42.00
3215.48,22.00
3216.22,-11.00
3216.96,42.00
3217.69,31.00
3218.43,32.00
3219.17,42.00
3219.90,64.00
3220.64,85.00
3221.37,32.00
3222.10,11.00
3222.84,0.00
3223.57,21.00
3224.30,0.00
3225.03,-11.00
3225.76,21.00
3226.49,11.00
3227.22,21.00
3227.95,0.00
3228.68,32.00
3229.41,21.00
3230.14,75.00
3230.87,74.00
3231.59,43.00
3232.32,74.00
3233.04,32.00
3233.77,32.00
3234.49,10.00
3235.22,0.00
3235.94,11.00
3236.66,53.00
3237.39,63.00
3238.11,21.00
3238.83,43.00
3239.55,-11.00
3240.27,-21.00
3240.99,53.00
3241.71,21.00
3242.43,-21.00
3243.15,0.00
3243.87,0.00
3244.58,21.00
3245.30,32.00
3246.02,42.00
3246.73,21.00
3247.45,63.00
3248.16,21.00
3248.88,-42.00
3249.59,-22.00
3250.30,-42.00
3251.01,-32.00
3251.73,21.00
3252.44,21.00
3253.15,95.00
3253.86,21.00
3254.57,-21.00
3255.28,21.00
3255.99,53.00
3256.70,11.00
3257.41,21.00
3258.11,31.00
3258.82,11.00
3259.53,11.00
3260.23,53.00
3260.94,32.00
3261.64,0.00
3262.35,0.00
3263.05,0.00
3263.76,53.00
3264.46,21.00
3265.16,-43.00
3265.86,-31.00
3266.56,-10.00
3267.26,0.00
3267.97,-10.00
3268.67,-31.00
3269.36,0.00
3270.06,-22.00
3270.76,-21.00
3271.46,22.00
3272.16,-42.00
3272.85,0.00
