RamanShift,Intensity
180.91,718.00
183.74,805.00
186.56,1017.00
189.39,1483.00
192.21,2287.00
195.03,3505.00
197.84,5220.00
200.66,7540.00
203.47,10207.00
206.28,12950.00
209.09,15577.00
211.89,18160.00
214.70,20087.00
217.50,21687.00
220.30,23053.00
223.10,23603.00
225.89,24006.00
228.69,24482.00
231.48,24810.00
234.27,24948.00
237.05,25308.00
239.84,25605.00
242.62,25361.00
245.40,25181.00
248.18,25085.00
250.96,24715.00
253.73,24408.00
256.51,24249.00
259.28,24027.00
262.05,23709.00
264.81,23466.00
267.58,23498.00
270.34,23159.00
273.10,22936.00
275.86,23243.00
278.61,23307.00
281.37,23179.00
284.12,23201.00
286.87,23148.00
289.62,23233.00
292.36,23169.00
295.11,23222.00
297.85,23222.00
300.59,23318.00
303.33,23296.00
306.06,23233.00
308.80,23296.00
311.53,23179.00
314.26,23116.00
316.99,23211.00
319.71,23286.00
322.44,23190.00
325.16,23031.00
327.88,22915.00
330.59,22915.00
333.31,23116.00
336.02,23074.00
338.73,23084.00
341.44,23010.00
344.15,23106.00
346.86,23042.00
349.56,22999.00
352.26,23074.00
354.96,23232.00
357.66,23370.00
360.35,23328.00
363.05,23232.00
365.74,23466.00
368.43,23900.00
371.12,24154.00
373.80,24165.00
376.48,24016.00
379.17,24164.00
381.85,24334.00
384.52,24291.00
387.20,24334.00
389.87,24440.00
392.54,24514.00
395.21,24662.00
397.88,24589.00
400.55,24450.00
403.21,24344.00
405.87,24387.00
408.53,24504.00
411.19,24461.00
413.84,24302.00
416.50,24430.00
419.15,24334.00
421.80,24207.00
424.45,24154.00
427.10,24079.00
429.74,23995.00
432.38,24080.00
435.02,24165.00
437.66,24143.00
440.30,24080.00
442.93,24112.00
445.56,24238.00
448.19,24334.00
450.82,24334.00
453.45,24217.00
456.07,24377.00
458.70,24493.00
461.32,24536.00
463.94,24376.00
466.55,24461.00
469.17,24514.00
471.78,24377.00
474.39,24419.00
477.00,24472.00
479.61,24567.00
482.22,24631.00
484.82,24451.00
487.42,24461.00
490.02,24312.00
492.62,24186.00
495.21,24334.00
497.81,24418.00
500.40,24260.00
502.99,24133.00
505.58,24069.00
508.17,24080.00
510.75,23942.00
513.33,23826.00
515.91,24122.00
518.49,24101.00
521.07,23974.00
523.65,23963.00
526.22,23857.00
528.79,23529.00
531.36,23519.00
533.93,23613.00
536.49,23698.00
539.06,23752.00
541.62,23646.00
544.18,23646.00
546.74,23603.00
549.30,23688.00
551.85,23582.00
554.40,23561.00
556.95,23529.00
559.50,23477.00
562.05,23614.00
564.59,23582.00
567.14,23540.00
569.68,23486.00
572.22,23402.00
574.76,23380.00
577.29,23233.00
579.83,23000.00
582.36,23138.00
584.89,23286.00
587.42,23243.00
589.95,23032.00
592.47,22852.00
594.99,22777.00
597.52,22587.00
600.04,22523.00
602.55,22512.00
605.07,22396.00
607.58,22354.00
610.09,22311.00
612.60,22258.00
615.11,22417.00
617.62,22386.00
620.12,22152.00
622.63,22185.00
625.13,22185.00
627.63,21983.00
630.13,21962.00
632.62,21962.00
635.12,21888.00
637.61,21782.00
640.10,21697.00
642.59,21697.00
645.07,21538.00
647.56,21401.00
650.04,21401.00
652.52,21443.00
655.00,21633.00
657.48,21485.00
659.96,21391.00
662.43,21327.00
664.90,21316.00
667.37,21337.00
669.84,21327.00
672.31,21284.00
674.78,21232.00
677.24,21369.00
679.70,21580.00
682.16,21390.00
684.62,21263.00
687.08,21199.00
689.53,21125.00
691.98,21125.00
694.43,20956.00
696.88,20819.00
699.33,20966.00
701.78,20691.00
704.22,20681.00
706.66,20585.00
709.10,20501.00
711.54,20491.00
713.98,20533.00
716.42,20628.00
718.85,20734.00
721.28,20754.00
723.71,20744.00
726.14,20819.00
728.57,20935.00
730.99,20861.00
733.41,20755.00
735.83,20617.00
738.25,20511.00
740.67,20320.00
743.09,20077.00
745.50,19727.00
747.91,19664.00
750.33,19653.00
752.73,19505.00
755.14,19442.00
757.55,19389.00
759.95,19368.00
762.35,19336.00
764.75,19326.00
767.15,19315.00
769.55,19304.00
771.95,19219.00
774.34,19304.00
776.73,19347.00
779.12,19220.00
781.51,19304.00
783.90,19304.00
786.28,19102.00
788.67,19102.00
791.05,18965.00
793.43,18870.00
795.80,18923.00
798.18,18743.00
800.56,18605.00
802.93,18764.00
805.30,18679.00
807.67,18510.00
810.04,18562.00
812.40,18679.00
814.77,18616.00
817.13,18394.00
819.49,18404.00
821.85,18319.00
824.21,18034.00
826.57,17938.00
828.92,17949.00
831.27,17843.00
833.63,17748.00
835.98,17779.00
838.32,17790.00
840.67,17779.00
843.01,17695.00
845.36,17408.00
847.70,17472.00
850.04,17483.00
852.37,17472.00
854.71,17366.00
857.05,17239.00
859.38,17154.00
861.71,17271.00
864.04,17249.00
866.37,17186.00
868.69,17218.00
871.02,17080.00
873.34,17101.00
875.66,17048.00
877.98,16837.00
880.30,16636.00
882.62,16677.00
884.93,16858.00
887.24,16890.00
889.55,16879.00
891.86,16710.00
894.17,16625.00
896.48,16699.00
898.78,16858.00
901.09,16795.00
903.39,16530.00
905.69,16414.00
907.99,16413.00
910.28,16339.00
912.58,16403.00
914.87,16413.00
917.16,16477.00
919.45,16403.00
921.74,16339.00
924.03,16212.00
926.31,16233.00
928.60,16201.00
930.88,16117.00
933.16,16170.00
935.44,15968.00
937.72,15884.00
939.99,15905.00
942.26,15915.00
944.54,16000.00
946.81,16074.00
949.08,16011.00
951.34,15810.00
953.61,15715.00
955.87,15682.00
958.14,15598.00
960.40,15576.00
962.66,15598.00
964.92,15608.00
967.17,15471.00
969.43,15397.00
971.68,15248.00
973.93,15196.00
976.18,15185.00
978.43,15058.00
980.68,15068.00
982.92,15057.00
985.17,14994.00
987.41,14846.00
989.65,14815.00
991.89,14644.00
994.12,14656.00
996.36,14857.00
998.59,14803.00
1000.83,14655.00
1003.06,14623.00
1005.29,14571.00
1007.51,14688.00
1009.74,14623.00
1011.97,14454.00
1014.19,14380.00
1016.41,14391.00
1018.63,14422.00
1020.85,14317.00
1023.07,14317.00
1025.28,14359.00
1027.49,14328.00
1029.71,14296.00
1031.92,14295.00
1034.13,14232.00
1036.33,14179.00
1038.54,14348.00
1040.74,14369.00
1042.95,14211.00
1045.15,13872.00
1047.35,13840.00
1049.55,13925.00
1051.74,13967.00
1053.94,14020.00
1056.13,14020.00
1058.32,13977.00
1060.51,13999.00
1062.70,13988.00
1064.89,13936.00
1067.08,13797.00
1069.26,13723.00
1071.44,13745.00
1073.63,13617.00
1075.81,13639.00
1077.98,13692.00
1080.16,13596.00
1082.34,13480.00
1084.51,13427.00
1086.68,13363.00
1088.85,13300.00
1091.02,13363.00
1093.19,13353.00
1095.35,13279.00
1097.52,13204.00
1099.68,13343.00
1101.84,13395.00
1104.00,13067.00
1106.16,12940.00
1108.32,13152.00
1110.48,13226.00
1112.63,13088.00
1114.78,12908.00
1116.93,12908.00
1119.08,12898.00
1121.23,12940.00
1123.38,12823.00
1125.52,12749.00
1127.67,12866.00
1129.81,12792.00
1131.95,12718.00
1134.09,12559.00
1136.22,12633.00
1138.36,12717.00
1140.50,12558.00
1142.63,12410.00
1144.76,12421.00
1146.89,12379.00
1149.02,12442.00
1151.15,12506.00
1153.27,12506.00
1155.40,12400.00
1157.52,12273.00
1159.64,12251.00
1161.76,12315.00
1163.88,12273.00
1165.99,12231.00
1168.11,12125.00
1170.22,12040.00
1172.34,11913.00
1174.45,11997.00
1176.56,12082.00
1178.66,12051.00
1180.77,12008.00
1182.88,12061.00
1184.98,12030.00
1187.08,11955.00
1189.18,11955.00
1191.28,11966.00
1193.38,11998.00
1195.47,12061.00
1197.57,11881.00
1199.66,11807.00
1201.75,11839.00
1203.85,11743.00
1205.93,11786.00
1208.02,11637.00
1210.11,11648.00
1212.19,11764.00
1214.28,11691.00
1216.36,11764.00
1218.44,11754.00
1220.52,11680.00
1222.59,11606.00
1224.67,11500.00
1226.74,11436.00
1228.82,11489.00
1230.89,11521.00
1232.96,11447.00
1235.03,11489.00
1237.10,11542.00
1239.16,11426.00
1241.23,11542.00
1243.29,11457.00
1245.35,11362.00
1247.41,11214.00
1249.47,11108.00
1251.53,11214.00
1253.58,11193.00
1255.64,11119.00
1257.69,11140.00
1259.74,11171.00
1261.79,11034.00
1263.84,10939.00
1265.89,11013.00
1267.93,11076.00
1269.98,11044.00
1272.02,11002.00
1274.06,10971.00
1276.10,10970.00
1278.14,10780.00
1280.18,10706.00
1282.22,10801.00
1284.25,10865.00
1286.28,10727.00
1288.32,10716.00
1290.35,10759.00
1292.38,10621.00
1294.40,10557.00
1296.43,10568.00
1298.46,10547.00
1300.48,10652.00
1302.50,10632.00
1304.52,10504.00
1306.54,10515.00
1308.56,10505.00
1310.58,10515.00
1312.59,10589.00
1314.60,10621.00
1316.62,10536.00
1318.63,10557.00
1320.64,10684.00
1322.65,10653.00
1324.65,10663.00
1326.66,10653.00
1328.66,10610.00
1330.66,10547.00
1332.67,10504.00
1334.67,10547.00
1336.66,10547.00
1338.66,10430.00
1340.66,10356.00
1342.65,10283.00
1344.65,10197.00
1346.64,10166.00
1348.63,10102.00
1350.62,10123.00
1352.60,10325.00
1354.59,10218.00
1356.57,10081.00
1358.56,10155.00
1360.54,10218.00
1362.52,10144.00
1364.50,9997.00
1366.48,9827.00
1368.46,9774.00
1370.43,9890.00
1372.41,9837.00
1374.38,9837.00
1376.35,9912.00
1378.32,9784.00
1380.29,9710.00
1382.25,9647.00
1384.22,9615.00
1386.18,9636.00
1388.15,9795.00
1390.11,9805.00
1392.07,9753.00
1394.03,9732.00
1395.99,9679.00
1397.94,9699.00
1399.90,9690.00
1401.85,9499.00
1403.80,9488.00
1405.76,9584.00
1407.71,9530.00
1409.65,9456.00
1411.60,9393.00
1413.55,9466.00
1415.49,9392.00
1417.44,9308.00
1419.38,9287.00
1421.32,9350.00
1423.26,9223.00
1425.19,9118.00
1427.13,9265.00
1429.07,9266.00
1431.00,9170.00
1432.93,9107.00
1434.86,9053.00
1436.79,8969.00
1438.72,8980.00
1440.65,9054.00
1442.57,9033.00
1444.50,8990.00
1446.42,8969.00
1448.34,8927.00
1450.26,8832.00
1452.18,8789.00
1454.10,8821.00
1456.02,8863.00
1457.93,8779.00
1459.85,8799.00
1461.76,8811.00
1463.67,8852.00
1465.58,8821.00
1467.49,8800.00
1469.40,8757.00
1471.31,8673.00
1473.21,8641.00
1475.11,8715.00
1477.02,8630.00
1478.92,8535.00
1480.82,8556.00
1482.72,8440.00
1484.61,8419.00
1486.51,8482.00
1488.40,8524.00
1490.30,8694.00
1492.19,8609.00
1494.08,8408.00
1495.97,8504.00
1497.86,8461.00
1499.74,8398.00
1501.63,8355.00
1503.51,8376.00
1505.40,8408.00
1507.28,8355.00
1509.16,8302.00
1511.04,8270.00
1512.92,8207.00
1514.79,8302.00
1516.67,8323.00
1518.54,8207.00
1520.42,8112.00
1522.29,8143.00
1524.16,8185.00
1526.03,8165.00
1527.89,8101.00
1529.76,8037.00
1531.63,8079.00
1533.49,8059.00
1535.35,7985.00
1537.21,7963.00
1539.07,7963.00
1540.93,7995.00
1542.79,7974.00
1544.65,8005.00
1546.50,7995.00
1548.36,7974.00
1550.21,7921.00
1552.06,7857.00
1553.91,7921.00
1555.76,7910.00
1557.61,7741.00
1559.45,7656.00
1561.30,7613.00
1563.14,7698.00
1564.98,7666.00
1566.82,7730.00
1568.67,7699.00
1570.50,7624.00
1572.34,7561.00
1574.18,7518.00
1576.01,7592.00
1577.85,7571.00
1579.68,7402.00
1581.51,7423.00
1583.34,7476.00
1585.17,7465.00
1587.00,7455.00
1588.82,7455.00
1590.65,7433.00
1592.47,7433.00
1594.30,7466.00
1596.12,7349.00
1597.94,7264.00
1599.76,7328.00
1601.57,7338.00
1603.39,7349.00
1605.21,7201.00
1607.02,7169.00
1608.83,7232.00
1610.64,7212.00
1612.45,7168.00
1614.26,7032.00
1616.07,7053.00
1617.88,6978.00
1619.68,6936.00
1621.49,6904.00
1623.29,6904.00
1625.09,6915.00
1626.89,6936.00
1628.69,6989.00
1630.49,6787.00
1632.29,6778.00
1634.08,6851.00
1635.88,6799.00
1637.67,6724.00
1639.46,6767.00
1641.25,6840.00
1643.04,6778.00
1644.83,6681.00
1646.62,6693.00
1648.41,6787.00
1650.19,6767.00
1651.97,6692.00
1653.76,6512.00
1655.54,6544.00
1657.32,6608.00
1659.10,6608.00
1660.88,6555.00
1662.65,6513.00
1664.43,6565.00
1666.20,6512.00
1667.97,6396.00
1669.75,6375.00
1671.52,6407.00
1673.29,6386.00
1675.05,6449.00
1676.82,6396.00
1678.59,6353.00
1680.35,6322.00
1682.11,6268.00
1683.88,6279.00
1685.64,6321.00
1687.40,6353.00
1689.16,6332.00
1690.91,6258.00
1692.67,6258.00
1694.42,6227.00
1696.18,6110.00
1697.93,6047.00
1699.68,6068.00
1701.43,6099.00
1703.18,6100.00
1704.93,6142.00
1706.68,6025.00
1708.42,5846.00
1710.17,5877.00
1711.91,5972.00
1713.65,5898.00
1715.39,5761.00
1717.13,5792.00
1718.87,5866.00
1720.61,5930.00
1722.35,5930.00
1724.08,5930.00
1725.81,5718.00
1727.55,5591.00
1729.28,5707.00
1731.01,5802.00
1732.74,5835.00
1734.47,5771.00
1736.19,5612.00
1737.92,5581.00
1739.64,5602.00
1741.37,5602.00
1743.09,5665.00
1744.81,5644.00
1746.53,5496.00
1748.25,5454.00
1749.97,5454.00
1751.68,5433.00
1753.40,5411.00
1755.11,5580.00
1756.83,5591.00
1758.54,5475.00
1760.25,5464.00
1761.96,5454.00
1763.67,5401.00
1765.38,5369.00
1767.08,5337.00
1768.79,5401.00
1770.49,5433.00
1772.19,5411.00
1773.90,5337.00
1775.60,5295.00
1777.30,5263.00
1778.99,5231.00
1780.69,5305.00
1782.39,5262.00
1784.08,5252.00
1785.78,5178.00
1787.47,5093.00
1789.16,5072.00
1790.85,5104.00
1792.54,5135.00
1794.23,5073.00
1795.91,5136.00
1797.60,5135.00
1799.28,5135.00
1800.97,5168.00
1802.65,5125.00
1804.33,5072.00
1806.01,5104.00
1807.69,5104.00
1809.37,5041.00
1811.05,5051.00
1812.72,5051.00
1814.40,5009.00
1816.07,4924.00
1817.74,4977.00
1819.41,5040.00
1821.08,5008.00
1822.75,5019.00
1824.42,4988.00
1826.09,5030.00
1827.75,5061.00
1829.42,4946.00
1831.08,4818.00
1832.74,4829.00
1834.40,4903.00
1836.06,4988.00
1837.72,4850.00
1839.38,4797.00
1841.04,4786.00
1842.69,4818.00
1844.35,4861.00
1846.00,4787.00
1847.65,4733.00
1849.30,4818.00
1850.95,4818.00
1852.60,4691.00
1854.25,4669.00
1855.90,4702.00
1857.54,4670.00
1859.19,4585.00
1860.83,4649.00
1862.47,4648.00
1864.12,4575.00
1865.76,4606.00
1867.40,4564.00
1869.03,4532.00
1870.67,4437.00
1872.31,4395.00
1873.94,4501.00
1875.57,4585.00
1877.21,4500.00
1878.84,4436.00
1880.47,4394.00
1882.10,4394.00
1883.73,4394.00
1885.35,4331.00
1886.98,4395.00
1888.61,4406.00
1890.23,4373.00
1891.85,4352.00
1893.47,4321.00
1895.09,4267.00
1896.71,4246.00
1898.33,4267.00
1899.95,4268.00
1901.57,4310.00
1903.18,4342.00
1904.80,4310.00
1906.41,4225.00
1908.02,4246.00
1909.63,4267.00
1911.24,4172.00
1912.85,4141.00
1914.46,4098.00
1916.07,4162.00
1917.67,4204.00
1919.28,4141.00
1920.88,4109.00
1922.48,4077.00
1924.08,4077.00
1925.68,3961.00
1927.28,3971.00
1928.88,4024.00
1930.48,4013.00
1932.07,4013.00
1933.67,4024.00
1935.26,4013.00
1936.86,4045.00
1938.45,4034.00
1940.04,3971.00
1941.63,3929.00
1943.22,3897.00
1944.80,3897.00
1946.39,3855.00
1947.98,3886.00
1949.56,3886.00
1951.14,3928.00
1952.73,3834.00
1954.31,3801.00
1955.89,3896.00
1957.47,3907.00
1959.05,3907.00
1960.62,3908.00
1962.20,3865.00
1963.77,3823.00
1965.35,3780.00
1966.92,3802.00
1968.49,3822.00
1970.06,3760.00
1971.63,3759.00
1973.20,3759.00
1974.77,3695.00
1976.34,3675.00
1977.90,3675.00
1979.47,3674.00
1981.03,3632.00
1982.59,3642.00
1984.15,3632.00
1985.71,3621.00
1987.27,3589.00
1988.83,3568.00
1990.39,3589.00
1991.94,3653.00
1993.50,3642.00
1995.05,3675.00
1996.61,3632.00
1998.16,3568.00
1999.71,3505.00
2001.26,3526.00
2002.81,3537.00
2004.36,3569.00
2005.91,3590.00
2007.45,3610.00
2009.00,3589.00
2010.54,3548.00
2012.08,3548.00
2013.62,3590.00
2015.17,3590.00
2016.71,3505.00
2018.24,3442.00
2019.78,3431.00
2021.32,3441.00
2022.85,3421.00
2024.39,3410.00
2025.92,3410.00
2027.46,3473.00
2028.99,3537.00
2030.52,3495.00
2032.05,3463.00
2033.58,3442.00
2035.10,3421.00
2036.63,3495.00
2038.16,3452.00
2039.68,3399.00
2041.21,3336.00
2042.73,3336.00
2044.25,3410.00
2045.77,3336.00
2047.29,3336.00
2048.81,3336.00
2050.33,3293.00
2051.84,3314.00
2053.36,3304.00
2054.87,3219.00
2056.39,3209.00
2057.90,3219.00
2059.41,3261.00
2060.92,3240.00
2062.43,3198.00
2063.94,3219.00
2065.45,3209.00
2066.95,3188.00
2068.46,3102.00
2069.96,3135.00
2071.47,3124.00
2072.97,3167.00
2074.47,3208.00
2075.97,3187.00
2077.47,3102.00
2078.97,3113.00
2080.47,3145.00
2081.96,3134.00
2083.46,3166.00
2084.95,3060.00
2086.45,2965.00
2087.94,2986.00
2089.43,3039.00
2090.92,2997.00
2092.41,2965.00
2093.90,2944.00
2095.39,2923.00
2096.88,2912.00
2098.36,2869.00
2099.85,2870.00
2101.33,2838.00
2102.81,2870.00
2104.30,2859.00
2105.78,2870.00
2107.26,2785.00
2108.74,2806.00
2110.21,2816.00
2111.69,2859.00
2113.17,2838.00
2114.64,2753.00
2116.12,2753.00
2117.59,2795.00
2119.06,2848.00
2120.53,2869.00
2122.00,2922.00
2123.47,2785.00
2124.94,2753.00
2126.41,2754.00
2127.87,2764.00
2129.34,2785.00
2130.80,2742.00
2132.27,2700.00
2133.73,2679.00
2135.19,2711.00
2136.65,2711.00
2138.11,2753.00
2139.57,2743.00
2141.03,2690.00
2142.48,2605.00
2143.94,2541.00
2145.39,2605.00
2146.85,2647.00
2148.30,2679.00
2149.75,2626.00
2151.20,2509.00
2152.65,2521.00
2154.10,2647.00
2155.55,2700.00
2157.00,2637.00
2158.44,2615.00
2159.89,2573.00
2161.33,2573.00
2162.78,2594.00
2164.22,2605.00
2165.66,2637.00
2167.10,2595.00
2168.54,2531.00
2169.98,2584.00
2171.42,2562.00
2172.85,2552.00
2174.29,2573.00
2175.72,2583.00
2177.16,2584.00
2178.59,2541.00
2180.02,2510.00
2181.45,2467.00
2182.88,2457.00
2184.31,2457.00
2185.74,2467.00
2187.17,2446.00
2188.59,2499.00
2190.02,2436.00
2191.44,2478.00
2192.87,2509.00
2194.29,2393.00
2195.71,2393.00
2197.13,2446.00
2198.55,2446.00
2199.97,2478.00
2201.39,2467.00
2202.81,2435.00
2204.22,2435.00
2205.64,2372.00
2207.05,2425.00
2208.46,2436.00
2209.88,2351.00
2211.29,2372.00
2212.70,2403.00
2214.11,2382.00
2215.52,2309.00
2216.92,2362.00
2218.33,2298.00
2219.74,2308.00
2221.14,2319.00
2222.54,2308.00
2223.95,2308.00
2225.35,2235.00
2226.75,2255.00
2228.15,2330.00
2229.55,2266.00
2230.95,2214.00
2232.35,2202.00
2233.74,2234.00
2235.14,2234.00
2236.53,2202.00
2237.93,2245.00
2239.32,2203.00
2240.71,2202.00
2242.10,2182.00
2243.49,2160.00
2244.88,2203.00
2246.27,2192.00
2247.66,2149.00
2249.04,2118.00
2250.43,2203.00
2251.81,2160.00
2253.20,2181.00
2254.58,2245.00
2255.96,2181.00
2257.34,2149.00
2258.72,2161.00
2260.10,2034.00
2261.48,2034.00
2262.86,2096.00
2264.23,2075.00
2265.61,2023.00
2266.98,2002.00
2268.36,2034.00
2269.73,2076.00
2271.10,2034.00
2272.47,2033.00
2273.84,2023.00
2275.21,2034.00
2276.58,2065.00
2277.95,2054.00
2279.31,1991.00
2280.68,1906.00
2282.05,2033.00
2283.41,2012.00
2284.77,1928.00
2286.13,1959.00
2287.50,1970.00
2288.86,1927.00
2290.22,1959.00
2291.57,1928.00
2292.93,1948.00
2294.29,1927.00
2295.64,2022.00
2297.00,2022.00
2298.35,1927.00
2299.71,1927.00
2301.06,1896.00
2302.41,1927.00
2303.76,1896.00
2305.11,1885.00
2306.46,1864.00
2307.81,1822.00
2309.15,1842.00
2310.50,1863.00
2311.84,1810.00
2313.19,1832.00
2314.53,1906.00
2315.87,1885.00
2317.22,1800.00
2318.56,1768.00
2319.90,1779.00
2321.24,1821.00
2322.57,1843.00
2323.91,1758.00
2325.25,1758.00
2326.58,1822.00
2327.92,1779.00
2329.25,1736.00
2330.58,1726.00
2331.91,1747.00
2333.25,1769.00
2334.58,1769.00
2335.90,1758.00
2337.23,1758.00
2338.56,1716.00
2339.89,1716.00
2341.21,1695.00
2342.54,1695.00
2343.86,1758.00
2345.19,1642.00
2346.51,1652.00
2347.83,1673.00
2349.15,1704.00
2350.47,1726.00
2351.79,1610.00
2353.11,1673.00
2354.42,1716.00
2355.74,1726.00
2357.06,1673.00
2358.37,1609.00
2359.68,1652.00
2361.00,1652.00
2362.31,1620.00
2363.62,1620.00
2364.93,1620.00
2366.24,1609.00
2367.55,1610.00
2368.86,1568.00
2370.16,1588.00
2371.47,1630.00
2372.77,1568.00
2374.08,1557.00
2375.38,1588.00
2376.68,1557.00
2377.98,1567.00
2379.29,1589.00
2380.59,1588.00
2381.88,1577.00
2383.18,1578.00
2384.48,1525.00
2385.78,1482.00
2387.07,1493.00
2388.37,1430.00
2389.66,1482.00
2390.95,1504.00
2392.25,1503.00
2393.54,1525.00
2394.83,1525.00
2396.12,1504.00
2397.41,1504.00
2398.70,1557.00
2399.98,1557.00
2401.27,1525.00
2402.55,1514.00
2403.84,1461.00
2405.12,1472.00
2406.41,1482.00
2407.69,1450.00
2408.97,1493.00
2410.25,1461.00
2411.53,1482.00
2412.81,1472.00
2414.09,1430.00
2415.36,1398.00
2416.64,1398.00
2417.91,1419.00
2419.19,1440.00
2420.46,1398.00
2421.74,1387.00
2423.01,1387.00
2424.28,1355.00
2425.55,1398.00
2426.82,1440.00
2428.09,1376.00
2429.36,1324.00
2430.62,1238.00
2431.89,1334.00
2433.15,1387.00
2434.42,1355.00
2435.68,1366.00
2436.94,1324.00
2438.21,1303.00
2439.47,1334.00
2440.73,1345.00
2441.99,1313.00
2443.25,1366.00
2444.51,1398.00
2445.76,1355.00
2447.02,1334.00
2448.27,1356.00
2449.53,1271.00
2450.78,1271.00
2452.03,1313.00
2453.29,1324.00
2454.54,1355.00
2455.79,1334.00
2457.04,1281.00
2458.29,1228.00
2459.54,1217.00
2460.78,1228.00
2462.03,1260.00
2463.27,1217.00
2464.52,1208.00
2465.76,1228.00
2467.01,1282.00
2468.25,1271.00
2469.49,1281.00
2470.73,1292.00
2471.97,1271.00
2473.21,1228.00
2474.45,1196.00
2475.69,1208.00
2476.92,1239.00
2478.16,1281.00
2479.39,1228.00
2480.63,1186.00
2481.86,1176.00
2483.09,1186.00
2484.32,1165.00
2485.56,1165.00
2486.79,1154.00
2488.02,1176.00
2489.24,1175.00
2490.47,1186.00
2491.70,1207.00
2492.92,1164.00
2494.15,1080.00
2495.37,1122.00
2496.60,1102.00
2497.82,1059.00
2499.04,1123.00
2500.26,1102.00
2501.48,1133.00
2502.70,1101.00
2503.92,1091.00
2505.14,1069.00
2506.36,1154.00
2507.58,1229.00
2508.79,1186.00
2510.01,1101.00
2511.22,1101.00
2512.43,1112.00
2513.64,1122.00
2514.86,1122.00
2516.07,1101.00
2517.28,1102.00
2518.49,1101.00
2519.70,1101.00
2520.90,1123.00
2522.11,1037.00
2523.32,1016.00
2524.52,1080.00
2525.73,1091.00
2526.93,1048.00
2528.13,1038.00
2529.33,1027.00
2530.54,985.00
2531.74,1028.00
2532.94,1059.00
2534.14,1112.00
2535.33,1091.00
2536.53,1080.00
2537.73,1016.00
2538.92,1027.00
2540.12,1070.00
2541.31,996.00
2542.51,964.00
2543.70,995.00
2544.89,996.00
2546.08,964.00
2547.27,1038.00
2548.46,1017.00
2549.65,964.00
2550.84,1038.00
2552.03,985.00
2553.21,995.00
2554.40,1006.00
2555.58,974.00
2556.77,995.00
2557.95,942.00
2559.13,996.00
2560.31,1006.00
2561.50,963.00
2562.68,932.00
2563.85,910.00
2565.03,932.00
2566.21,985.00
2567.39,1017.00
2568.56,953.00
2569.74,921.00
2570.91,985.00
2572.09,932.00
2573.26,921.00
2574.43,900.00
2575.61,943.00
2576.78,953.00
2577.95,985.00
2579.12,900.00
2580.29,857.00
2581.45,889.00
2582.62,922.00
2583.79,942.00
2584.95,921.00
2586.12,942.00
2587.28,974.00
2588.44,900.00
2589.61,953.00
2590.77,910.00
2591.93,858.00
2593.09,858.00
2594.25,858.00
2595.41,848.00
2596.56,857.00
2597.72,910.00
2598.88,890.00
2600.03,900.00
2601.19,858.00
2602.34,847.00
2603.50,878.00
2604.65,805.00
2605.80,836.00
2606.95,826.00
2608.10,879.00
2609.25,890.00
2610.40,868.00
2611.55,848.00
2612.70,868.00
2613.84,879.00
2614.99,921.00
2616.13,910.00
2617.28,858.00
2618.42,826.00
2619.56,837.00
2620.71,837.00
2621.85,815.00
2622.99,836.00
2624.13,816.00
2625.27,762.00
2626.40,741.00
2627.54,773.00
2628.68,784.00
2629.81,773.00
2630.95,805.00
2632.08,847.00
2633.22,826.00
2634.35,847.00
2635.48,815.00
2636.61,826.00
2637.74,805.00
2638.87,763.00
2640.00,721.00
2641.13,699.00
2642.26,730.00
2643.39,741.00
2644.51,752.00
2645.64,720.00
2646.76,784.00
2647.89,804.00
2649.01,784.00
2650.13,784.00
2651.25,741.00
2652.38,731.00
2653.50,763.00
2654.62,783.00
2655.73,763.00
2656.85,773.00
2657.97,699.00
2659.09,720.00
2660.20,837.00
2661.32,773.00
2662.43,752.00
2663.55,741.00
2664.66,720.00
2665.77,720.00
2666.88,709.00
2667.99,731.00
2669.10,762.00
2670.21,699.00
2671.32,699.00
2672.43,689.00
2673.54,657.00
2674.64,657.00
2675.75,657.00
2676.85,657.00
2677.96,667.00
2679.06,657.00
2680.16,657.00
2681.26,678.00
2682.37,720.00
2683.47,731.00
2684.57,752.00
2685.66,741.00
2686.76,698.00
2687.86,720.00
2688.96,699.00
2690.05,699.00
2691.15,678.00
2692.24,646.00
2693.34,636.00
2694.43,678.00
2695.52,699.00
2696.62,656.00
2697.71,593.00
2698.80,604.00
2699.89,678.00
2700.98,678.00
2702.06,657.00
2703.15,667.00
2704.24,625.00
2705.32,593.00
2706.41,604.00
2707.49,604.00
2708.58,646.00
2709.66,688.00
2710.74,688.00
2711.83,636.00
2712.91,656.00
2713.99,636.00
2715.07,624.00
2716.15,582.00
2717.22,593.00
2718.30,593.00
2719.38,614.00
2720.45,614.00
2721.53,625.00
2722.60,615.00
2723.68,562.00
2724.75,593.00
2725.82,657.00
2726.89,667.00
2727.97,636.00
2729.04,635.00
2730.11,572.00
2731.17,593.00
2732.24,624.00
2733.31,614.00
2734.38,593.00
2735.44,582.00
2736.51,551.00
2737.57,540.00
2738.64,593.00
2739.70,614.00
2740.76,582.00
2741.82,540.00
2742.89,551.00
2743.95,530.00
2745.01,508.00
2746.07,497.00
2747.12,530.00
2748.18,551.00
2749.24,508.00
2750.29,465.00
2751.35,508.00
2752.40,529.00
2753.46,551.00
2754.51,572.00
2755.57,551.00
2756.62,529.00
2757.67,551.00
2758.72,540.00
2759.77,529.00
2760.82,561.00
2761.87,572.00
2762.91,530.00
2763.96,455.00
2765.01,466.00
2766.05,529.00
2767.10,540.00
2768.14,519.00
2769.19,529.00
2770.23,487.00
2771.27,455.00
2772.31,487.00
2773.35,583.00
2774.40,572.00
2775.43,529.00
2776.47,530.00
2777.51,476.00
2778.55,487.00
2779.59,508.00
2780.62,519.00
2781.66,530.00
2782.69,498.00
2783.73,477.00
2784.76,455.00
2785.79,509.00
2786.82,519.00
2787.85,444.00
2788.89,487.00
2789.92,487.00
2790.94,487.00
2791.97,508.00
2793.00,465.00
2794.03,488.00
2795.05,455.00
2796.08,466.00
2797.11,477.00
2798.13,498.00
2799.15,487.00
2800.18,487.00
2801.20,497.00
2802.22,466.00
2803.24,476.00
2804.26,455.00
2805.28,456.00
2806.30,477.00
2807.32,508.00
2808.34,519.00
2809.35,487.00
2810.37,476.00
2811.39,423.00
2812.40,445.00
2813.41,456.00
2814.43,424.00
2815.44,434.00
2816.45,456.00
2817.46,455.00
2818.48,455.00
2819.49,424.00
2820.49,423.00
2821.50,445.00
2822.51,423.00
2823.52,466.00
2824.53,466.00
2825.53,455.00
2826.54,424.00
2827.54,402.00
2828.55,413.00
2829.55,381.00
2830.55,423.00
2831.55,434.00
2832.56,392.00
2833.56,360.00
2834.56,403.00
2835.56,423.00
2836.56,423.00
2837.55,424.00
2838.55,466.00
2839.55,456.00
2840.54,391.00
2841.54,360.00
2842.53,445.00
2843.53,455.00
2844.52,435.00
2845.51,350.00
2846.51,350.00
2847.50,402.00
2848.49,402.00
2849.48,339.00
2850.47,403.00
2851.46,402.00
2852.45,413.00
2853.43,413.00
2854.42,392.00
2855.41,381.00
2856.39,360.00
2857.38,371.00
2858.36,381.00
2859.34,360.00
2860.33,381.00
2861.31,403.00
2862.29,402.00
2863.27,392.00
2864.25,391.00
2865.23,381.00
2866.21,413.00
2867.19,413.00
2868.17,402.00
2869.14,402.00
2870.12,402.00
2871.09,370.00
2872.07,317.00
2873.04,360.00
2874.02,381.00
2874.99,338.00
2875.96,317.00
2876.93,339.00
2877.91,328.00
2878.88,350.00
2879.85,338.00
2880.82,317.00
2881.78,349.00
2882.75,318.00
2883.72,307.00
2884.69,276.00
2885.65,307.00
2886.62,296.00
2887.58,317.00
2888.55,307.00
2889.51,328.00
2890.47,339.00
2891.43,382.00
2892.39,350.00
2893.36,349.00
2894.31,317.00
2895.27,307.00
2896.23,339.00
2897.19,349.00
2898.15,350.00
2899.11,381.00
2900.06,339.00
2901.02,339.00
2901.97,307.00
2902.93,329.00
2903.88,381.00
2904.83,349.00
2905.79,328.00
2906.74,360.00
2907.69,339.00
2908.64,349.00
2909.59,360.00
2910.54,360.00
2911.49,317.00
2912.43,308.00
2913.38,307.00
2914.33,297.00
2915.27,339.00
2916.22,297.00
2917.16,254.00
2918.11,254.00
2919.05,244.00
2919.99,254.00
2920.94,360.00
2921.88,370.00
2922.82,339.00
2923.76,339.00
2924.70,286.00
2925.64,286.00
2926.58,338.00
2927.51,308.00
2928.45,286.00
2929.39,276.00
2930.32,254.00
2931.26,296.00
2932.19,254.00
2933.13,243.00
2934.06,328.00
2934.99,276.00
2935.92,244.00
2936.86,275.00
2937.79,308.00
2938.72,275.00
2939.65,307.00
2940.57,318.00
2941.50,318.00
2942.43,264.00
2943.36,307.00
2944.28,329.00
2945.21,254.00
2946.13,212.00
2947.06,232.00
2947.98,329.00
2948.91,360.00
2949.83,307.00
2950.75,339.00
2951.67,297.00
2952.59,307.00
2953.51,276.00
2954.43,254.00
2955.35,223.00
2956.27,223.00
2957.19,202.00
2958.10,233.00
2959.02,275.00
2959.94,265.00
2960.85,265.00
2961.77,254.00
2962.68,276.00
2963.59,265.00
2964.51,243.00
2965.42,233.00
2966.33,233.00
2967.24,233.00
2968.15,254.00
2969.06,276.00
2969.97,244.00
2970.88,211.00
2971.78,233.00
2972.69,265.00
2973.60,276.00
2974.50,275.00
2975.41,276.00
2976.31,318.00
2977.22,339.00
2978.12,329.00
2979.02,265.00
2979.93,254.00
2980.83,285.00
2981.73,254.00
2982.63,275.00
2983.53,318.00
2984.43,275.00
2985.33,233.00
2986.22,223.00
2987.12,233.00
2988.02,222.00
2988.91,212.00
2989.81,254.00
2990.70,243.00
2991.60,201.00
2992.49,211.00
2993.38,255.00
2994.28,212.00
2995.17,191.00
2996.06,244.00
2996.95,233.00
2997.84,233.00
2998.73,190.00
2999.62,222.00
3000.51,275.00
3001.40,254.00
3002.28,233.00
3003.17,233.00
3004.05,233.00
3004.94,211.00
3005.82,222.00
3006.71,170.00
3007.59,170.00
3008.47,191.00
3009.36,212.00
3010.24,201.00
3011.12,222.00
3012.00,243.00
3012.88,201.00
3013.76,223.00
3014.64,191.00
3015.51,170.00
3016.39,148.00
3017.27,170.00
3018.14,180.00
3019.02,232.00
3019.89,244.00
3020.77,233.00
3021.64,201.00
3022.52,244.00
3023.39,222.00
3024.26,254.00
3025.13,254.00
3026.00,223.00
3026.87,180.00
3027.74,169.00
3028.61,211.00
3029.48,222.00
3030.35,190.00
3031.21,233.00
3032.08,222.00
3032.95,212.00
3033.81,148.00
3034.68,169.00
3035.54,116.00
3036.40,137.00
3037.27,159.00
3038.13,148.00
3038.99,190.00
3039.85,212.00
3040.71,201.00
3041.57,159.00
3042.43,159.00
3043.29,159.00
3044.15,202.00
3045.01,191.00
3045.86,191.00
3046.72,201.00
3047.58,191.00
3048.43,212.00
3049.29,190.00
3050.14,212.00
3050.99,180.00
3051.85,149.00
3052.70,149.00
3053.55,84.00
3054.40,106.00
3055.25,190.00
3056.10,191.00
3056.95,190.00
3057.80,222.00
3058.65,212.00
3059.50,233.00
3060.34,233.00
3061.19,233.00
3062.04,180.00
3062.88,158.00
3063.73,127.00
3064.57,170.00
3065.42,169.00
3066.26,116.00
3067.10,138.00
3067.94,159.00
3068.78,149.00
3069.63,117.00
3070.47,127.00
3071.31,106.00
3072.14,85.00
3072.98,158.00
3073.82,116.00
3074.66,138.00
3075.49,170.00
3076.33,117.00
3077.17,137.00
3078.00,116.00
3078.83,137.00
3079.67,170.00
3080.50,180.00
3081.33,201.00
3082.17,159.00
3083.00,106.00
3083.83,148.00
3084.66,138.00
3085.49,127.00
3086.32,127.00
3087.15,148.00
3087.97,137.00
3088.80,148.00
3089.63,148.00
3090.46,148.00
3091.28,169.00
3092.11,169.00
3092.93,201.00
3093.75,180.00
3094.58,169.00
3095.40,149.00
3096.22,127.00
3097.05,137.00
3097.87,222.00
3098.69,233.00
3099.51,149.00
3100.33,170.00
3101.15,148.00
3101.96,138.00
3102.78,149.00
3103.60,170.00
3104.42,127.00
3105.23,127.00
3106.05,159.00
3106.86,106.00
3107.68,138.00
3108.49,223.00
3109.30,244.00
3110.12,180.00
3110.93,201.00
3111.74,148.00
3112.55,116.00
3113.36,138.00
3114.17,127.00
3114.98,117.00
3115.79,127.00
3116.60,138.00
3117.40,138.00
3118.21,138.00
3119.02,148.00
3119.82,180.00
3120.63,159.00
3121.43,138.00
3122.24,85.00
3123.04,138.00
3123.84,85.00
3124.65,43.00
3125.45,138.00
3126.25,148.00
3127.05,138.00
3127.85,127.00
3128.65,106.00
3129.45,127.00
3130.25,137.00
3131.05,106.00
3131.84,75.00
3132.64,85.00
3133.44,159.00
3134.23,117.00
3135.03,127.00
3135.82,127.00
3136.62,169.00
3137.41,149.00
3138.20,137.00
3139.00,106.00
3139.79,127.00
3140.58,85.00
3141.37,148.00
3142.16,148.00
3142.95,127.00
3143.74,64.00
3144.53,64.00
3145.32,84.00
3146.10,74.00
3146.89,74.00
3147.68,74.00
3148.46,74.00
3149.25,116.00
3150.03,116.00
3150.82,170.00
3151.60,138.00
3152.38,106.00
3153.17,127.00
3153.95,149.00
3154.73,106.00
3155.51,74.00
3156.29,85.00
3157.07,95.00
3157.85,84.00
3158.63,32.00
3159.41,53.00
3160.18,75.00
3160.96,74.00
3161.74,96.00
3162.51,85.00
3163.29,95.00
3164.06,117.00
3164.84,95.00
3165.61,74.00
3166.38,85.00
3167.16,74.00
3167.93,138.00
3168.70,158.00
3169.47,127.00
3170.24,148.00
3171.01,84.00
3171.78,85.00
3172.55,95.00
3173.32,85.00
3174.09,74.00
3174.85,74.00
3175.62,63.00
3176.39,96.00
3177.15,127.00
3177.92,159.00
3178.68,169.00
3179.45,106.00
3180.21,95.00
3180.97,149.00
3181.73,148.00
3182.50,106.00
3183.26,64.00
3184.02,74.00
3184.78,127.00
3185.54,63.00
3186.30,95.00
3187.05,148.00
3187.81,159.00
3188.57,149.00
3189.33,106.00
3190.08,85.00
3190.84,53.00
3191.59,63.00
3192.35,11.00
3193.10,84.00
3193.86,106.00
3194.61,74.00
3195.36,85.00
3196.12,159.00
3196.87,106.00
3197.62,137.00
3198.37,127.00
3199.12,106.00
3199.87,117.00
3200.62,85.00
3201.36,64.00
3202.11,64.00
3202.86,85.00
3203.61,95.00
3204.35,85.00
3205.10,85.00
3205.84,74.00
3206.59,64.00
3207.33,42.00
3208.08,75.00
3208.82,84.00
3209.56,32.00
3210.30,148.00
3211.05,127.00
3211.79,96.00
3212.53,127.00
3213.27,106.00
3214.01,64.00
3214.75,43.00
3215.48,-10.00
3216.22,21.00
3216.96,64.00
3217.69,95.00
3218.43,43.00
3219.17,53.00
3219.90,43.00
3220.64,74.00
3221.37,117.00
3222.10,95.00
3222.84,85.00
3223.57,74.00
3224.30,106.00
3225.03,106.00
3225.76,64.00
3226.49,42.00
3227.22,74.00
3227.95,64.00
3228.68,53.00
3229.41,63.00
3230.14,74.00
3230.87,64.00
3231.59,42.00
3232.32,84.00
3233.04,117.00
3233.77,21.00
3234.49,21.00
3235.22,64.00
3235.94,85.00
3236.66,148.00
3237.39,53.00
3238.11,11.00
3238.83,32.00
3239.55,85.00
3240.27,53.00
3240.99,32.00
3241.71,32.00
3242.43,85.00
3243.15,84.00
3243.87,138.00
3244.58,63.00
3245.30,32.00
3246.02,95.00
3246.73,74.00
3247.45,21.00
3248.16,43.00
3248.88,105.00
3249.59,74.00
3250.30,63.00
3251.01,74.00
3251.73,95.00
3252.44,85.00
3253.15,42.00
3253.86,63.00
3254.57,53.00
3255.28,53.00
3255.99,85.00
3256.70,116.00
3257.41,84.00
3258.11,85.00
3258.82,106.00
3259.53,63.00
3260.23,63.00
3260.94,74.00
3261.64,64.00
3262.35,21.00
3263.05,74.00
3263.76,64.00
3264.46,32.00
3265.16,63.00
3265.86,21.00
3266.56,43.00
3267.26,53.00
3267.97,32.00
3268.67,42.00
3269.36,85.00
3270.06,84.00
3270.76,63.00
3271.46,42.00
3272.16,63.00
3272.85,0.00
