RamanShift,Intensity
180.91,201.00
183.74,212.00
186.56,223.00
189.39,360.00
192.21,487.00
195.03,678.00
197.84,921.00
200.66,1239.00
203.47,1504.00
206.28,1705.00
209.09,2012.00
211.89,2309.00
214.70,2467.00
217.50,2605.00
220.30,2615.00
223.10,2785.00
225.89,2901.00
228.69,2881.00
231.48,2944.00
234.27,3018.00
237.05,3039.00
239.84,3081.00
242.62,3102.00
245.40,3029.00
248.18,2997.00
250.96,2869.00
253.73,2827.00
256.51,2764.00
259.28,2669.00
262.05,2616.00
264.81,2521.00
267.58,2436.00
270.34,2415.00
273.10,2435.00
275.86,2372.00
278.61,2425.00
281.37,2382.00
284.12,2394.00
286.87,2361.00
289.62,2393.00
292.36,2372.00
295.11,2309.00
297.85,2330.00
300.59,2266.00
303.33,2256.00
306.06,2298.00
308.80,2298.00
311.53,2361.00
314.26,2319.00
316.99,2309.00
319.71,2319.00
322.44,2298.00
325.16,2277.00
327.88,2266.00
330.59,2287.00
333.31,2361.00
336.02,2256.00
338.73,2181.00
341.44,2160.00
344.15,2298.00
346.86,2340.00
349.56,2266.00
352.26,2224.00
354.96,2203.00
357.66,2160.00
360.35,2202.00
363.05,2288.00
365.74,2288.00
368.43,2351.00
371.12,2309.00
373.80,2298.00
376.48,2319.00
379.17,2245.00
381.85,2181.00
384.52,2266.00
387.20,2372.00
389.87,2340.00
392.54,2351.00
395.21,2393.00
397.88,2351.00
400.55,2298.00
403.21,2341.00
405.87,2287.00
408.53,2266.00
411.19,2244.00
413.84,2255.00
416.50,2214.00
419.15,2255.00
421.80,2319.00
424.45,2245.00
427.10,2266.00
429.74,2266.00
432.38,2330.00
435.02,2330.00
437.66,2223.00
440.30,2235.00
442.93,2182.00
445.56,2213.00
448.19,2234.00
450.82,2256.00
453.45,2255.00
456.07,2245.00
458.70,2256.00
461.32,2288.00
463.94,2298.00
466.55,2319.00
469.17,2287.00
471.78,2298.00
474.39,2255.00
477.00,2224.00
479.61,2234.00
482.22,2287.00
484.82,2255.00
487.42,2203.00
490.02,2203.00
492.62,2245.00
495.21,2277.00
497.81,2224.00
500.40,2118.00
502.99,2160.00
505.58,2223.00
508.17,2181.00
510.75,2170.00
513.33,2214.00
515.91,2192.00
518.49,2182.00
521.07,2181.00
523.65,2128.00
526.22,2171.00
528.79,2224.00
531.36,2160.00
533.93,2097.00
536.49,2139.00
539.06,2139.00
541.62,2160.00
544.18,2181.00
546.74,2192.00
549.30,2182.00
551.85,2224.00
554.40,2203.00
556.95,2171.00
559.50,2075.00
562.05,2075.00
564.59,2139.00
567.14,2203.00
569.68,2244.00
572.22,2139.00
574.76,2108.00
577.29,2118.00
579.83,2107.00
582.36,2107.00
584.89,2054.00
587.42,2086.00
589.95,2086.00
592.47,2065.00
594.99,2097.00
597.52,2096.00
600.04,2064.00
602.55,2065.00
605.07,2033.00
607.58,2001.00
610.09,2033.00
612.60,2054.00
615.11,2012.00
617.62,2044.00
620.12,2086.00
622.63,2034.00
625.13,1991.00
627.63,2022.00
630.13,1990.00
632.62,1990.00
635.12,1896.00
637.61,1885.00
640.10,2001.00
642.59,1991.00
645.07,1853.00
647.56,1884.00
650.04,1959.00
652.52,1970.00
655.00,1991.00
657.48,1991.00
659.96,2002.00
662.43,2012.00
664.90,2001.00
667.37,2012.00
669.84,1990.00
672.31,1906.00
674.78,1937.00
677.24,1990.00
679.70,1970.00
682.16,1949.00
684.62,1980.00
687.08,1927.00
689.53,1821.00
691.98,1874.00
694.43,1949.00
696.88,1927.00
699.33,1928.00
701.78,1896.00
704.22,1906.00
706.66,1906.00
709.10,1843.00
711.54,1800.00
713.98,1821.00
716.42,1875.00
718.85,1864.00
721.28,1875.00
723.71,1863.00
726.14,1843.00
728.57,1874.00
730.99,1916.00
733.41,1949.00
735.83,2033.00
738.25,1896.00
740.67,1864.00
743.09,1906.00
745.50,1864.00
747.91,1769.00
750.33,1757.00
752.73,1716.00
755.14,1748.00
757.55,1769.00
759.95,1683.00
762.35,1694.00
764.75,1694.00
767.15,1758.00
769.55,1705.00
771.95,1747.00
774.34,1737.00
776.73,1652.00
779.12,1694.00
781.51,1695.00
783.90,1694.00
786.28,1652.00
788.67,1694.00
791.05,1694.00
793.43,1694.00
795.80,1737.00
798.18,1663.00
800.56,1631.00
802.93,1620.00
805.30,1630.00
807.67,1620.00
810.04,1610.00
812.40,1620.00
814.77,1620.00
817.13,1599.00
819.49,1525.00
821.85,1482.00
824.21,1493.00
826.57,1588.00
828.92,1631.00
831.27,1620.00
833.63,1536.00
835.98,1546.00
838.32,1630.00
840.67,1588.00
843.01,1556.00
845.36,1535.00
847.70,1536.00
850.04,1578.00
852.37,1630.00
854.71,1610.00
857.05,1514.00
859.38,1493.00
861.71,1525.00
864.04,1471.00
866.37,1493.00
868.69,1525.00
871.02,1504.00
873.34,1398.00
875.66,1451.00
877.98,1472.00
880.30,1461.00
882.62,1472.00
884.93,1524.00
887.24,1482.00
889.55,1471.00
891.86,1472.00
894.17,1440.00
896.48,1483.00
898.78,1461.00
901.09,1419.00
903.39,1366.00
905.69,1408.00
907.99,1440.00
910.28,1440.00
912.58,1430.00
914.87,1377.00
917.16,1398.00
919.45,1419.00
921.74,1472.00
924.03,1441.00
926.31,1355.00
928.60,1419.00
930.88,1525.00
933.16,1430.00
935.44,1356.00
937.72,1355.00
939.99,1345.00
942.26,1355.00
944.54,1345.00
946.81,1292.00
949.08,1355.00
951.34,1366.00
953.61,1345.00
955.87,1387.00
958.14,1419.00
960.40,1419.00
962.66,1366.00
964.92,1334.00
967.17,1292.00
969.43,1324.00
971.68,1335.00
973.93,1270.00
976.18,1239.00
978.43,1291.00
980.68,1323.00
982.92,1281.00
985.17,1218.00
987.41,1313.00
989.65,1323.00
991.89,1324.00
994.12,1282.00
996.36,1291.00
998.59,1292.00
1000.83,1249.00
1003.06,1270.00
1005.29,1261.00
1007.51,1313.00
1009.74,1356.00
1011.97,1345.00
1014.19,1260.00
1016.41,1249.00
1018.63,1228.00
1020.85,1281.00
1023.07,1260.00
1025.28,1281.00
1027.49,1260.00
1029.71,1218.00
1031.92,1197.00
1034.13,1250.00
1036.33,1303.00
1038.54,1292.00
1040.74,1270.00
1042.95,1218.00
1045.15,1270.00
1047.35,1355.00
1049.55,1271.00
1051.74,1250.00
1053.94,1270.00
1056.13,1271.00
1058.32,1260.00
1060.51,1229.00
1062.70,1207.00
1064.89,1228.00
1067.08,1218.00
1069.26,1249.00
1071.44,1197.00
1073.63,1207.00
1075.81,1186.00
1077.98,1175.00
1080.16,1154.00
1082.34,1176.00
1084.51,1143.00
1086.68,1144.00
1088.85,1186.00
1091.02,1197.00
1093.19,1133.00
1095.35,1144.00
1097.52,1112.00
1099.68,1165.00
1101.84,1154.00
1104.00,1175.00
1106.16,1196.00
1108.32,1186.00
1110.48,1228.00
1112.63,1207.00
1114.78,1165.00
1116.93,1186.00
1119.08,1144.00
1121.23,1133.00
1123.38,1101.00
1125.52,1080.00
1127.67,1122.00
1129.81,1165.00
1131.95,1154.00
1134.09,1154.00
1136.22,1134.00
1138.36,1112.00
1140.50,1080.00
1142.63,1069.00
1144.76,1080.00
1146.89,1101.00
1149.02,1101.00
1151.15,1101.00
1153.27,1069.00
1155.40,1049.00
1157.52,1080.00
1159.64,1037.00
1161.76,1017.00
1163.88,1027.00
1165.99,1080.00
1168.11,1123.00
1170.22,1080.00
1172.34,1038.00
1174.45,1059.00
1176.56,1080.00
1178.66,1123.00
1180.77,1154.00
1182.88,1091.00
1184.98,1059.00
1187.08,1080.00
1189.18,1058.00
1191.28,1058.00
1193.38,1048.00
1195.47,1069.00
1197.57,1069.00
1199.66,1048.00
1201.75,1006.00
1203.85,995.00
1205.93,942.00
1208.02,953.00
1210.11,1016.00
1212.19,1059.00
1214.28,995.00
1216.36,1027.00
1218.44,1080.00
1220.52,1059.00
1222.59,996.00
1224.67,953.00
1226.74,1038.00
1228.82,1017.00
1230.89,1038.00
1232.96,1080.00
1235.03,1048.00
1237.10,1102.00
1239.16,1070.00
1241.23,996.00
1243.29,974.00
1245.35,963.00
1247.41,974.00
1249.47,1017.00
1251.53,995.00
1253.58,1027.00
1255.64,995.00
1257.69,985.00
1259.74,1006.00
1261.79,974.00
1263.84,985.00
1265.89,985.00
1267.93,995.00
1269.98,985.00
1272.02,974.00
1274.06,1006.00
1276.10,1006.00
1278.14,953.00
1280.18,1017.00
1282.22,1006.00
1284.25,974.00
1286.28,869.00
1288.32,932.00
1290.35,964.00
1292.38,985.00
1294.40,942.00
1296.43,942.00
1298.46,943.00
1300.48,921.00
1302.50,932.00
1304.52,974.00
1306.54,995.00
1308.56,995.00
1310.58,953.00
1312.59,942.00
1314.60,942.00
1316.62,910.00
1318.63,953.00
1320.64,1006.00
1322.65,1006.00
1324.65,953.00
1326.66,995.00
1328.66,985.00
1330.66,984.00
1332.67,1016.00
1334.67,1016.00
1336.66,1038.00
1338.66,995.00
1340.66,932.00
1342.65,911.00
1344.65,890.00
1346.64,858.00
1348.63,911.00
1350.62,953.00
1352.60,942.00
1354.59,889.00
1356.57,900.00
1358.56,900.00
1360.54,921.00
1362.52,932.00
1364.50,900.00
1366.48,869.00
1368.46,857.00
1370.43,858.00
1372.41,826.00
1374.38,847.00
1376.35,889.00
1378.32,868.00
1380.29,847.00
1382.25,890.00
1384.22,837.00
1386.18,858.00
1388.15,868.00
1390.11,857.00
1392.07,826.00
1394.03,879.00
1395.99,869.00
1397.94,868.00
1399.90,869.00
1401.85,900.00
1403.80,847.00
1405.76,837.00
1407.71,911.00
1409.65,910.00
1411.60,879.00
1413.55,900.00
1415.49,943.00
1417.44,836.00
1419.38,773.00
1421.32,784.00
1423.26,730.00
1425.19,773.00
1427.13,762.00
1429.07,762.00
1431.00,752.00
1432.93,742.00
1434.86,773.00
1436.79,794.00
1438.72,773.00
1440.65,763.00
1442.57,763.00
1444.50,815.00
1446.42,794.00
1448.34,805.00
1450.26,795.00
1452.18,868.00
1454.10,816.00
1456.02,773.00
1457.93,762.00
1459.85,794.00
1461.76,837.00
1463.67,858.00
1465.58,836.00
1467.49,847.00
1469.40,804.00
1471.31,773.00
1473.21,783.00
1475.11,763.00
1477.02,784.00
1478.92,752.00
1480.82,773.00
1482.72,794.00
1484.61,784.00
1486.51,794.00
1488.40,783.00
1490.30,751.00
1492.19,762.00
1494.08,773.00
1495.97,794.00
1497.86,742.00
1499.74,699.00
1501.63,763.00
1503.51,762.00
1505.40,763.00
1507.28,731.00
1509.16,710.00
1511.04,720.00
1512.92,721.00
1514.79,783.00
1516.67,763.00
1518.54,762.00
1520.42,762.00
1522.29,741.00
1524.16,709.00
1526.03,720.00
1527.89,731.00
1529.76,667.00
1531.63,730.00
1533.49,763.00
1535.35,720.00
1537.21,699.00
1539.07,784.00
1540.93,773.00
1542.79,752.00
1544.65,731.00
1546.50,699.00
1548.36,699.00
1550.21,657.00
1552.06,657.00
1553.91,731.00
1555.76,710.00
1557.61,656.00
1559.45,688.00
1561.30,731.00
1563.14,699.00
1564.98,678.00
1566.82,678.00
1568.67,625.00
1570.50,635.00
1572.34,688.00
1574.18,710.00
1576.01,678.00
1577.85,604.00
1579.68,699.00
1581.51,720.00
1583.34,731.00
1585.17,699.00
1587.00,635.00
1588.82,614.00
1590.65,645.00
1592.47,677.00
1594.30,678.00
1596.12,667.00
1597.94,635.00
1599.76,625.00
1601.57,625.00
1603.39,635.00
1605.21,678.00
1607.02,678.00
1608.83,688.00
1610.64,720.00
1612.45,656.00
1614.26,667.00
1616.07,593.00
1617.88,604.00
1619.68,625.00
1621.49,593.00
1623.29,593.00
1625.09,645.00
1626.89,572.00
1628.69,572.00
1630.49,614.00
1632.29,646.00
1634.08,625.00
1635.88,614.00
1637.67,593.00
1639.46,593.00
1641.25,529.00
1643.04,529.00
1644.83,572.00
1646.62,561.00
1648.41,603.00
1650.19,625.00
1651.97,571.00
1653.76,551.00
1655.54,572.00
1657.32,582.00
1659.10,614.00
1660.88,604.00
1662.65,551.00
1664.43,509.00
1666.20,509.00
1667.97,551.00
1669.75,550.00
1671.52,519.00
1673.29,529.00
1675.05,604.00
1676.82,603.00
1678.59,572.00
1680.35,551.00
1682.11,519.00
1683.88,540.00
1685.64,550.00
1687.40,551.00
1689.16,551.00
1690.91,508.00
1692.67,550.00
1694.42,530.00
1696.18,593.00
1697.93,593.00
1699.68,540.00
1701.43,509.00
1703.18,487.00
1704.93,550.00
1706.68,540.00
1708.42,519.00
1710.17,551.00
1711.91,583.00
1713.65,540.00
1715.39,466.00
1717.13,456.00
1718.87,509.00
1720.61,540.00
1722.35,529.00
1724.08,519.00
1725.81,509.00
1727.55,455.00
1729.28,455.00
1731.01,498.00
1732.74,466.00
1734.47,424.00
1736.19,455.00
1737.92,456.00
1739.64,508.00
1741.37,551.00
1743.09,540.00
1744.81,519.00
1746.53,487.00
1748.25,498.00
1749.97,477.00
1751.68,444.00
1753.40,487.00
1755.11,456.00
1756.83,424.00
1758.54,445.00
1760.25,434.00
1761.96,466.00
1763.67,487.00
1765.38,423.00
1767.08,424.00
1768.79,445.00
1770.49,434.00
1772.19,434.00
1773.90,434.00
1775.60,434.00
1777.30,477.00
1778.99,455.00
1780.69,445.00
1782.39,477.00
1784.08,477.00
1785.78,424.00
1787.47,392.00
1789.16,445.00
1790.85,456.00
1792.54,423.00
1794.23,392.00
1795.91,424.00
1797.60,424.00
1799.28,444.00
1800.97,498.00
1802.65,434.00
1804.33,476.00
1806.01,402.00
1807.69,403.00
1809.37,413.00
1811.05,424.00
1812.72,445.00
1814.40,466.00
1816.07,456.00
1817.74,434.00
1819.41,382.00
1821.08,434.00
1822.75,434.00
1824.42,402.00
1826.09,403.00
1827.75,402.00
1829.42,413.00
1831.08,392.00
1832.74,403.00
1834.40,424.00
1836.06,445.00
1837.72,413.00
1839.38,382.00
1841.04,402.00
1842.69,424.00
1844.35,424.00
1846.00,424.00
1847.65,424.00
1849.30,445.00
1850.95,424.00
1852.60,423.00
1854.25,423.00
1855.90,392.00
1857.54,370.00
1859.19,360.00
1860.83,350.00
1862.47,402.00
1864.12,424.00
1865.76,456.00
1867.40,424.00
1869.03,402.00
1870.67,392.00
1872.31,402.00
1873.94,424.00
1875.57,370.00
1877.21,339.00
1878.84,349.00
1880.47,360.00
1882.10,381.00
1883.73,381.00
1885.35,434.00
1886.98,413.00
1888.61,381.00
1890.23,371.00
1891.85,392.00
1893.47,381.00
1895.09,381.00
1896.71,371.00
1898.33,317.00
1899.95,329.00
1901.57,329.00
1903.18,328.00
1904.80,349.00
1906.41,392.00
1908.02,382.00
1909.63,381.00
1911.24,296.00
1912.85,349.00
1914.46,381.00
1916.07,350.00
1917.67,402.00
1919.28,339.00
1920.88,317.00
1922.48,349.00
1924.08,349.00
1925.68,350.00
1927.28,349.00
1928.88,328.00
1930.48,360.00
1932.07,381.00
1933.67,371.00
1935.26,360.00
1936.86,339.00
1938.45,349.00
1940.04,360.00
1941.63,297.00
1943.22,307.00
1944.80,339.00
1946.39,329.00
1947.98,276.00
1949.56,339.00
1951.14,339.00
1952.73,318.00
1954.31,275.00
1955.89,318.00
1957.47,339.00
1959.05,307.00
1960.62,275.00
1962.20,339.00
1963.77,317.00
1965.35,339.00
1966.92,370.00
1968.49,339.00
1970.06,307.00
1971.63,317.00
1973.20,297.00
1974.77,254.00
1976.34,307.00
1977.90,339.00
1979.47,338.00
1981.03,360.00
1982.59,317.00
1984.15,254.00
1985.71,254.00
1987.27,317.00
1988.83,286.00
1990.39,275.00
1991.94,297.00
1993.50,297.00
1995.05,338.00
1996.61,360.00
1998.16,307.00
1999.71,254.00
2001.26,286.00
2002.81,296.00
2004.36,297.00
2005.91,286.00
2007.45,275.00
2009.00,275.00
2010.54,370.00
2012.08,370.00
2013.62,338.00
2015.17,285.00
2016.71,286.00
2018.24,265.00
2019.78,275.00
2021.32,318.00
2022.85,360.00
2024.39,339.00
2025.92,328.00
2027.46,318.00
2028.99,254.00
2030.52,275.00
2032.05,265.00
2033.58,275.00
2035.10,297.00
2036.63,297.00
2038.16,275.00
2039.68,254.00
2041.21,318.00
2042.73,339.00
2044.25,328.00
2045.77,328.00
2047.29,307.00
2048.81,307.00
2050.33,339.00
2051.84,286.00
2053.36,276.00
2054.87,297.00
2056.39,275.00
2057.90,286.00
2059.41,307.00
2060.92,307.00
2062.43,296.00
2063.94,296.00
2065.45,276.00
2066.95,297.00
2068.46,275.00
2069.96,191.00
2071.47,233.00
2072.97,255.00
2074.47,223.00
2075.97,223.00
2077.47,255.00
2078.97,255.00
2080.47,276.00
2081.96,211.00
2083.46,223.00
2084.95,255.00
2086.45,275.00
2087.94,254.00
2089.43,254.00
2090.92,244.00
2092.41,254.00
2093.90,286.00
2095.39,233.00
2096.88,264.00
2098.36,223.00
2099.85,191.00
2101.33,212.00
2102.81,275.00
2104.30,264.00
2105.78,212.00
2107.26,222.00
2108.74,265.00
2110.21,211.00
2111.69,211.00
2113.17,233.00
2114.64,243.00
2116.12,222.00
2117.59,233.00
2119.06,233.00
2120.53,243.00
2122.00,254.00
2123.47,222.00
2124.94,191.00
2126.41,180.00
2127.87,201.00
2129.34,201.00
2130.80,212.00
2132.27,223.00
2133.73,265.00
2135.19,244.00
2136.65,265.00
2138.11,233.00
2139.57,201.00
2141.03,233.00
2142.48,202.00
2143.94,201.00
2145.39,222.00
2146.85,212.00
2148.30,201.00
2149.75,212.00
2151.20,254.00
2152.65,233.00
2154.10,254.00
2155.55,254.00
2157.00,233.00
2158.44,243.00
2159.89,233.00
2161.33,254.00
2162.78,243.00
2164.22,190.00
2165.66,212.00
2167.10,180.00
2168.54,233.00
2169.98,243.00
2171.42,222.00
2172.85,190.00
2174.29,180.00
2175.72,191.00
2177.16,180.00
2178.59,159.00
2180.02,169.00
2181.45,201.00
2182.88,190.00
2184.31,191.00
2185.74,127.00
2187.17,180.00
2188.59,190.00
2190.02,233.00
2191.44,201.00
2192.87,169.00
2194.29,148.00
2195.71,191.00
2197.13,233.00
2198.55,243.00
2199.97,191.00
2201.39,212.00
2202.81,233.00
2204.22,212.00
2205.64,244.00
2207.05,212.00
2208.46,212.00
2209.88,190.00
2211.29,201.00
2212.70,222.00
2214.11,233.00
2215.52,191.00
2216.92,191.00
2218.33,180.00
2219.74,169.00
2221.14,202.00
2222.54,254.00
2223.95,201.00
2225.35,159.00
2226.75,212.00
2228.15,212.00
2229.55,159.00
2230.95,180.00
2232.35,212.00
2233.74,180.00
2235.14,202.00
2236.53,201.00
2237.93,180.00
2239.32,201.00
2240.71,201.00
2242.10,169.00
2243.49,148.00
2244.88,148.00
2246.27,201.00
2247.66,191.00
2249.04,170.00
2250.43,191.00
2251.81,148.00
2253.20,191.00
2254.58,191.00
2255.96,180.00
2257.34,159.00
2258.72,127.00
2260.10,138.00
2261.48,159.00
2262.86,223.00
2264.23,191.00
2265.61,190.00
2266.98,212.00
2268.36,180.00
2269.73,158.00
2271.10,138.00
2272.47,148.00
2273.84,148.00
2275.21,170.00
2276.58,180.00
2277.95,169.00
2279.31,159.00
2280.68,169.00
2282.05,191.00
2283.41,169.00
2284.77,137.00
2286.13,127.00
2287.50,222.00
2288.86,191.00
2290.22,127.00
2291.57,149.00
2292.93,159.00
2294.29,159.00
2295.64,159.00
2297.00,170.00
2298.35,169.00
2299.71,169.00
2301.06,169.00
2302.41,190.00
2303.76,170.00
2305.11,212.00
2306.46,148.00
2307.81,138.00
2309.15,169.00
2310.50,169.00
2311.84,127.00
2313.19,116.00
2314.53,170.00
2315.87,170.00
2317.22,191.00
2318.56,180.00
2319.90,169.00
2321.24,159.00
2322.57,149.00
2323.91,149.00
2325.25,169.00
2326.58,148.00
2327.92,117.00
2329.25,148.00
2330.58,117.00
2331.91,128.00
2333.25,180.00
2334.58,148.00
2335.90,127.00
2337.23,84.00
2338.56,127.00
2339.89,170.00
2341.21,148.00
2342.54,149.00
2343.86,127.00
2345.19,137.00
2346.51,191.00
2347.83,137.00
2349.15,127.00
2350.47,148.00
2351.79,191.00
2353.11,233.00
2354.42,201.00
2355.74,148.00
2357.06,127.00
2358.37,148.00
2359.68,127.00
2361.00,169.00
2362.31,170.00
2363.62,148.00
2364.93,148.00
2366.24,212.00
2367.55,191.00
2368.86,170.00
2370.16,169.00
2371.47,148.00
2372.77,138.00
2374.08,127.00
2375.38,180.00
2376.68,149.00
2377.98,127.00
2379.29,106.00
2380.59,149.00
2381.88,148.00
2383.18,148.00
2384.48,148.00
2385.78,148.00
2387.07,169.00
2388.37,149.00
2389.66,138.00
2390.95,170.00
2392.25,159.00
2393.54,191.00
2394.83,148.00
2396.12,127.00
2397.41,84.00
2398.70,95.00
2399.98,138.00
2401.27,117.00
2402.55,138.00
2403.84,148.00
2405.12,84.00
2406.41,95.00
2407.69,138.00
2408.97,138.00
2410.25,169.00
2411.53,148.00
2412.81,117.00
2414.09,117.00
2415.36,138.00
2416.64,148.00
2417.91,148.00
2419.19,85.00
2420.46,106.00
2421.74,127.00
2423.01,127.00
2424.28,106.00
2425.55,105.00
2426.82,95.00
2428.09,106.00
2429.36,95.00
2430.62,148.00
2431.89,116.00
2433.15,127.00
2434.42,148.00
2435.68,169.00
2436.94,158.00
2438.21,105.00
2439.47,106.00
2440.73,127.00
2441.99,169.00
2443.25,117.00
2444.51,64.00
2445.76,85.00
2447.02,159.00
2448.27,138.00
2449.53,128.00
2450.78,127.00
2452.03,85.00
2453.29,95.00
2454.54,74.00
2455.79,95.00
2457.04,116.00
2458.29,85.00
2459.54,116.00
2460.78,85.00
2462.03,106.00
2463.27,117.00
2464.52,127.00
2465.76,85.00
2467.01,95.00
2468.25,85.00
2469.49,85.00
2470.73,95.00
2471.97,127.00
2473.21,64.00
2474.45,148.00
2475.69,106.00
2476.92,116.00
2478.16,127.00
2479.39,106.00
2480.63,106.00
2481.86,169.00
2483.09,138.00
2484.32,116.00
2485.56,84.00
2486.79,95.00
2488.02,127.00
2489.24,117.00
2490.47,85.00
2491.70,106.00
2492.92,85.00
2494.15,64.00
2495.37,96.00
2496.60,85.00
2497.82,105.00
2499.04,149.00
2500.26,127.00
2501.48,74.00
2502.70,85.00
2503.92,138.00
2505.14,127.00
2506.36,106.00
2507.58,127.00
2508.79,138.00
2510.01,96.00
2511.22,106.00
2512.43,127.00
2513.64,149.00
2514.86,127.00
2516.07,137.00
2517.28,95.00
2518.49,95.00
2519.70,95.00
2520.90,105.00
2522.11,106.00
2523.32,138.00
2524.52,84.00
2525.73,74.00
2526.93,106.00
2528.13,127.00
2529.33,85.00
2530.54,85.00
2531.74,53.00
2532.94,74.00
2534.14,74.00
2535.33,53.00
2536.53,74.00
2537.73,105.00
2538.92,117.00
2540.12,96.00
2541.31,74.00
2542.51,85.00
2543.70,64.00
2544.89,74.00
2546.08,96.00
2547.27,117.00
2548.46,64.00
2549.65,32.00
2550.84,85.00
2552.03,127.00
2553.21,127.00
2554.40,74.00
2555.58,75.00
2556.77,85.00
2557.95,85.00
2559.13,85.00
2560.31,53.00
2561.50,63.00
2562.68,63.00
2563.85,74.00
2565.03,95.00
2566.21,106.00
2567.39,74.00
2568.56,64.00
2569.74,64.00
2570.91,85.00
2572.09,64.00
2573.26,42.00
2574.43,43.00
2575.61,53.00
2576.78,32.00
2577.95,53.00
2579.12,85.00
2580.29,85.00
2581.45,106.00
2582.62,127.00
2583.79,95.00
2584.95,85.00
2586.12,84.00
2587.28,85.00
2588.44,148.00
2589.61,95.00
2590.77,95.00
2591.93,106.00
2593.09,43.00
2594.25,96.00
2595.41,75.00
2596.56,31.00
2597.72,84.00
2598.88,127.00
2600.03,106.00
2601.19,85.00
2602.34,106.00
2603.50,42.00
2604.65,53.00
2605.80,85.00
2606.95,74.00
2608.10,43.00
2609.25,64.00
2610.40,53.00
2611.55,64.00
2612.70,63.00
2613.84,85.00
2614.99,96.00
2616.13,84.00
2617.28,85.00
2618.42,105.00
2619.56,84.00
2620.71,85.00
2621.85,95.00
2622.99,84.00
2624.13,84.00
2625.27,42.00
2626.40,53.00
2627.54,43.00
2628.68,84.00
2629.81,85.00
2630.95,64.00
2632.08,53.00
2633.22,85.00
2634.35,74.00
2635.48,74.00
2636.61,63.00
2637.74,43.00
2638.87,53.00
2640.00,85.00
2641.13,85.00
2642.26,85.00
2643.39,85.00
2644.51,84.00
2645.64,42.00
2646.76,32.00
2647.89,63.00
2649.01,64.00
2650.13,85.00
2651.25,63.00
2652.38,22.00
2653.50,22.00
2654.62,42.00
2655.73,32.00
2656.85,21.00
2657.97,42.00
2659.09,85.00
2660.20,127.00
2661.32,95.00
2662.43,42.00
2663.55,85.00
2664.66,63.00
2665.77,106.00
2666.88,105.00
2667.99,74.00
2669.10,85.00
2670.21,85.00
2671.32,53.00
2672.43,63.00
2673.54,21.00
2674.64,22.00
2675.75,64.00
2676.85,22.00
2677.96,63.00
2679.06,127.00
2680.16,117.00
2681.26,106.00
2682.37,64.00
2683.47,53.00
2684.57,42.00
2685.66,85.00
2686.76,106.00
2687.86,106.00
2688.96,43.00
2690.05,74.00
2691.15,63.00
2692.24,64.00
2693.34,43.00
2694.43,106.00
2695.52,85.00
2696.62,32.00
2697.71,42.00
2698.80,85.00
2699.89,53.00
2700.98,21.00
2702.06,43.00
2703.15,21.00
2704.24,0.00
2705.32,63.00
2706.41,64.00
2707.49,42.00
2708.58,74.00
2709.66,74.00
2710.74,85.00
2711.83,95.00
2712.91,74.00
2713.99,85.00
2715.07,74.00
2716.15,84.00
2717.22,64.00
2718.30,85.00
2719.38,63.00
2720.45,85.00
2721.53,74.00
2722.60,64.00
2723.68,43.00
2724.75,85.00
2725.82,43.00
2726.89,64.00
2727.97,106.00
2729.04,85.00
2730.11,74.00
2731.17,31.00
2732.24,21.00
2733.31,42.00
2734.38,53.00
2735.44,21.00
2736.51,53.00
2737.57,85.00
2738.64,105.00
2739.70,106.00
2740.76,106.00
2741.82,63.00
2742.89,53.00
2743.95,43.00
2745.01,31.00
2746.07,43.00
2747.12,106.00
2748.18,106.00
2749.24,42.00
2750.29,42.00
2751.35,32.00
2752.40,85.00
2753.46,95.00
2754.51,85.00
2755.57,85.00
2756.62,106.00
2757.67,64.00
2758.72,21.00
2759.77,32.00
2760.82,0.00
2761.87,10.00
2762.91,52.00
2763.96,43.00
2765.01,43.00
2766.05,10.00
2767.10,32.00
2768.14,32.00
2769.19,21.00
2770.23,53.00
2771.27,64.00
2772.31,43.00
2773.35,21.00
2774.40,10.00
2775.43,21.00
2776.47,32.00
2777.51,21.00
2778.55,21.00
2779.59,32.00
2780.62,63.00
2781.66,53.00
2782.69,42.00
2783.73,0.00
2784.76,64.00
2785.79,84.00
2786.82,42.00
2787.85,74.00
2788.89,63.00
2789.92,43.00
2790.94,22.00
2791.97,42.00
2793.00,85.00
2794.03,43.00
2795.05,42.00
2796.08,43.00
2797.11,32.00
2798.13,11.00
2799.15,74.00
2800.18,84.00
2801.20,42.00
2802.22,42.00
2803.24,53.00
2804.26,63.00
2805.28,43.00
2806.30,32.00
2807.32,21.00
2808.34,63.00
2809.35,32.00
2810.37,21.00
2811.39,32.00
2812.40,63.00
2813.41,74.00
2814.43,63.00
2815.44,32.00
2816.45,11.00
2817.46,11.00
2818.48,11.00
2819.49,21.00
2820.49,32.00
2821.50,63.00
2822.51,0.00
2823.52,21.00
2824.53,42.00
2825.53,64.00
2826.54,32.00
2827.54,0.00
2828.55,11.00
2829.55,42.00
2830.55,21.00
2831.55,21.00
2832.56,42.00
2833.56,0.00
2834.56,64.00
2835.56,63.00
2836.56,53.00
2837.55,43.00
2838.55,53.00
2839.55,43.00
2840.54,0.00
2841.54,0.00
2842.53,0.00
2843.53,0.00
2844.52,74.00
2845.51,74.00
2846.51,53.00
2847.50,42.00
2848.49,42.00
2849.48,32.00
2850.47,31.00
2851.46,84.00
2852.45,32.00
2853.43,21.00
2854.42,0.00
2855.41,-21.00
2856.39,43.00
2857.38,64.00
2858.36,64.00
2859.34,21.00
2860.33,-10.00
2861.31,10.00
2862.29,21.00
2863.27,11.00
2864.25,21.00
2865.23,21.00
2866.21,42.00
2867.19,63.00
2868.17,64.00
2869.14,42.00
2870.12,11.00
2871.09,0.00
2872.07,21.00
2873.04,0.00
2874.02,11.00
2874.99,43.00
2875.96,21.00
2876.93,53.00
2877.91,63.00
2878.88,64.00
2879.85,21.00
2880.82,52.00
2881.78,74.00
2882.75,64.00
2883.72,85.00
2884.69,53.00
2885.65,42.00
2886.62,63.00
2887.58,85.00
2888.55,53.00
2889.51,42.00
2890.47,42.00
2891.43,42.00
2892.39,22.00
2893.36,42.00
2894.31,64.00
2895.27,63.00
2896.23,42.00
2897.19,-42.00
2898.15,10.00
2899.11,10.00
2900.06,-21.00
2901.02,10.00
2901.97,42.00
2902.93,63.00
2903.88,32.00
2904.83,21.00
2905.79,21.00
2906.74,43.00
2907.69,21.00
2908.64,42.00
2909.59,42.00
2910.54,21.00
2911.49,31.00
2912.43,42.00
2913.38,31.00
2914.33,11.00
2915.27,32.00
2916.22,22.00
2917.16,32.00
2918.11,11.00
2919.05,31.00
2919.99,42.00
2920.94,0.00
2921.88,0.00
2922.82,0.00
2923.76,63.00
2924.70,106.00
2925.64,85.00
2926.58,53.00
2927.51,43.00
2928.45,53.00
2929.39,31.00
2930.32,0.00
2931.26,11.00
2932.19,43.00
2933.13,42.00
2934.06,21.00
2934.99,21.00
2935.92,32.00
2936.86,10.00
2937.79,42.00
2938.72,21.00
2939.65,-21.00
2940.57,21.00
2941.50,32.00
2942.43,0.00
2943.36,0.00
2944.28,11.00
2945.21,32.00
2946.13,52.00
2947.06,-10.00
2947.98,10.00
2948.91,74.00
2949.83,64.00
2950.75,-11.00
2951.67,43.00
2952.59,74.00
2953.51,43.00
2954.43,63.00
2955.35,84.00
2956.27,85.00
2957.19,21.00
2958.10,0.00
2959.02,63.00
2959.94,85.00
2960.85,63.00
2961.77,53.00
2962.68,85.00
2963.59,84.00
2964.51,32.00
2965.42,43.00
2966.33,0.00
2967.24,31.00
2968.15,85.00
2969.06,85.00
2969.97,21.00
2970.88,32.00
2971.78,-10.00
2972.69,21.00
2973.60,32.00
2974.50,21.00
2975.41,32.00
2976.31,85.00
2977.22,64.00
2978.12,11.00
2979.02,0.00
2979.93,21.00
2980.83,84.00
2981.73,63.00
2982.63,0.00
2983.53,11.00
2984.43,11.00
2985.33,21.00
2986.22,11.00
2987.12,11.00
2988.02,0.00
2988.91,11.00
2989.81,11.00
2990.70,0.00
2991.60,0.00
2992.49,32.00
2993.38,32.00
2994.28,63.00
2995.17,85.00
2996.06,64.00
2996.95,32.00
2997.84,-11.00
2998.73,21.00
2999.62,21.00
3000.51,64.00
3001.40,22.00
3002.28,10.00
3003.17,10.00
3004.05,85.00
3004.94,42.00
3005.82,31.00
3006.71,42.00
3007.59,32.00
3008.47,10.00
3009.36,63.00
3010.24,63.00
3011.12,106.00
3012.00,63.00
3012.88,64.00
3013.76,0.00
3014.64,21.00
3015.51,21.00
3016.39,31.00
3017.27,21.00
3018.14,31.00
3019.02,64.00
3019.89,21.00
3020.77,-10.00
3021.64,21.00
3022.52,42.00
3023.39,22.00
3024.26,42.00
3025.13,63.00
3026.00,32.00
3026.87,-11.00
3027.74,11.00
3028.61,53.00
3029.48,84.00
3030.35,64.00
3031.21,42.00
3032.08,21.00
3032.95,0.00
3033.81,63.00
3034.68,0.00
3035.54,11.00
3036.40,74.00
3037.27,43.00
3038.13,21.00
3038.99,0.00
3039.85,0.00
3040.71,0.00
3041.57,-11.00
3042.43,-22.00
3043.29,-10.00
3044.15,11.00
3045.01,0.00
3045.86,11.00
3046.72,64.00
3047.58,42.00
3048.43,21.00
3049.29,10.00
3050.14,21.00
3050.99,63.00
3051.85,74.00
3052.70,32.00
3053.55,-21.00
3054.40,43.00
3055.25,-10.00
3056.10,43.00
3056.95,32.00
3057.80,10.00
3058.65,10.00
3059.50,-10.00
3060.34,22.00
3061.19,32.00
3062.04,-31.00
3062.88,-31.00
3063.73,10.00
3064.57,0.00
3065.42,0.00
3066.26,10.00
3067.10,11.00
3067.94,42.00
3068.78,-21.00
3069.63,-21.00
3070.47,10.00
3071.31,0.00
3072.14,84.00
3072.98,22.00
3073.82,0.00
3074.66,0.00
3075.49,0.00
3076.33,0.00
3077.17,32.00
3078.00,11.00
3078.83,21.00
3079.67,42.00
3080.50,21.00
3081.33,0.00
3082.17,-43.00
3083.00,0.00
3083.83,42.00
3084.66,53.00
3085.49,31.00
3086.32,0.00
3087.15,-43.00
3087.97,31.00
3088.80,10.00
3089.63,31.00
3090.46,85.00
3091.28,22.00
3092.11,0.00
3092.93,43.00
3093.75,22.00
3094.58,0.00
3095.40,0.00
3096.22,32.00
3097.05,53.00
3097.87,52.00
3098.69,53.00
3099.51,10.00
3100.33,21.00
3101.15,52.00
3101.96,32.00
3102.78,10.00
3103.60,10.00
3104.42,53.00
3105.23,-10.00
3106.05,-21.00
3106.86,10.00
3107.68,32.00
3108.49,0.00
3109.30,-53.00
3110.12,-21.00
3110.93,52.00
3111.74,32.00
3112.55,11.00
3113.36,21.00
3114.17,21.00
3114.98,21.00
3115.79,21.00
3116.60,-32.00
3117.40,-11.00
3118.21,-11.00
3119.02,43.00
3119.82,43.00
3120.63,43.00
3121.43,21.00
3122.24,0.00
3123.04,11.00
3123.84,42.00
3124.65,10.00
3125.45,-11.00
3126.25,-21.00
3127.05,-21.00
3127.85,-32.00
3128.65,-11.00
3129.45,0.00
3130.25,-10.00
3131.05,-22.00
3131.84,11.00
3132.64,84.00
3133.44,42.00
3134.23,42.00
3135.03,11.00
3135.82,0.00
3136.62,-21.00
3137.41,11.00
3138.20,21.00
3139.00,52.00
3139.79,43.00
3140.58,21.00
3141.37,63.00
3142.16,42.00
3142.95,31.00
3143.74,64.00
3144.53,11.00
3145.32,21.00
3146.10,10.00
3146.89,42.00
3147.68,31.00
3148.46,21.00
3149.25,21.00
3150.03,21.00
3150.82,43.00
3151.60,21.00
3152.38,42.00
3153.17,43.00
3153.95,43.00
3154.73,64.00
3155.51,32.00
3156.29,32.00
3157.07,0.00
3157.85,-22.00
3158.63,0.00
3159.41,53.00
3160.18,21.00
3160.96,64.00
3161.74,85.00
3162.51,64.00
3163.29,-11.00
3164.06,-43.00
3164.84,11.00
3165.61,10.00
3166.38,52.00
3167.16,63.00
3167.93,53.00
3168.70,21.00
3169.47,-42.00
3170.24,-21.00
3171.01,42.00
3171.78,64.00
3172.55,85.00
3173.32,64.00
3174.09,21.00
3174.85,-64.00
3175.62,-74.00
3176.39,0.00
3177.15,0.00
3177.92,0.00
3178.68,21.00
3179.45,31.00
3180.21,32.00
3180.97,11.00
3181.73,0.00
3182.50,0.00
3183.26,-74.00
3184.02,-64.00
3184.78,0.00
3185.54,11.00
3186.30,-21.00
3187.05,21.00
3187.81,32.00
3188.57,21.00
3189.33,11.00
3190.08,-11.00
3190.84,10.00
3191.59,53.00
3192.35,0.00
3193.10,0.00
3193.86,31.00
3194.61,74.00
3195.36,42.00
3196.12,32.00
3196.87,0.00
3197.62,0.00
3198.37,11.00
3199.12,63.00
3199.87,32.00
3200.62,-21.00
3201.36,42.00
3202.11,32.00
3202.86,0.00
3203.61,0.00
3204.35,-32.00
3205.10,-32.00
3205.84,-11.00
3206.59,21.00
3207.33,64.00
3208.08,64.00
3208.82,21.00
3209.56,10.00
3210.30,21.00
3211.05,0.00
3211.79,11.00
3212.53,21.00
3213.27,32.00
3214.01,0.00
3214.75,11.00
3215.48,32.00
3216.22,21.00
3216.96,0.00
3217.69,42.00
3218.43,21.00
3219.17,21.00
3219.90,21.00
3220.64,0.00
3221.37,42.00
3222.10,42.00
3222.84,32.00
3223.57,53.00
3224.30,42.00
3225.03,10.00
3225.76,0.00
3226.49,53.00
3227.22,21.00
3227.95,-32.00
3228.68,-22.00
3229.41,96.00
3230.14,21.00
3230.87,-32.00
3231.59,-43.00
3232.32,0.00
3233.04,0.00
3233.77,10.00
3234.49,21.00
3235.22,32.00
3235.94,-53.00
3236.66,11.00
3237.39,-21.00
3238.11,-64.00
3238.83,-21.00
3239.55,21.00
3240.27,-11.00
3240.99,21.00
3241.71,42.00
3242.43,43.00
3243.15,32.00
3243.87,21.00
3244.58,53.00
3245.30,0.00
3246.02,10.00
3246.73,-42.00
3247.45,-74.00
3248.16,0.00
3248.88,42.00
3249.59,43.00
3250.30,0.00
3251.01,0.00
3251.73,-10.00
3252.44,-11.00
3253.15,21.00
3253.86,53.00
3254.57,21.00
3255.28,32.00
3255.99,11.00
3256.70,11.00
3257.41,32.00
3258.11,-10.00
3258.82,11.00
3259.53,-10.00
3260.23,11.00
3260.94,0.00
3261.64,42.00
3262.35,-11.00
3263.05,-43.00
3263.76,11.00
3264.46,-11.00
3265.16,0.00
3265.86,0.00
3266.56,10.00
3267.26,0.00
3267.97,-32.00
3268.67,0.00
3269.36,11.00
3270.06,-11.00
3270.76,21.00
3271.46,42.00
3272.16,43.00
3272.85,0.00
