RamanShift,Intensity
180.91,651.00
183.74,794.00
186.56,1091.00
189.39,1578.00
192.21,2467.00
195.03,3929.00
197.84,5951.00
200.66,8767.00
203.47,12018.00
206.28,15597.00
209.09,19368.00
211.89,22671.00
214.70,25689.00
217.50,28125.00
220.30,29628.00
223.10,31090.00
225.89,32349.00
228.69,33229.00
231.48,34246.00
234.27,35029.00
237.05,35378.00
239.84,35612.00
242.62,35622.00
245.40,35124.00
248.18,34203.00
250.96,33631.00
253.73,32636.00
256.51,31587.00
259.28,30518.00
262.05,29534.00
264.81,28601.00
267.58,27892.00
270.34,27267.00
273.10,26558.00
275.86,26282.00
278.61,26059.00
281.37,25647.00
284.12,25626.00
286.87,25647.00
289.62,25340.00
292.36,25149.00
295.11,24958.00
297.85,24927.00
300.59,25001.00
303.33,25065.00
306.06,25106.00
308.80,25192.00
311.53,25086.00
314.26,24895.00
316.99,24683.00
319.71,24493.00
322.44,24705.00
325.16,24694.00
327.88,24577.00
330.59,24630.00
333.31,24641.00
336.02,24398.00
338.73,24302.00
341.44,24164.00
344.15,24154.00
346.86,24154.00
349.56,24037.00
352.26,24006.00
354.96,24122.00
357.66,24217.00
360.35,24376.00
363.05,24429.00
365.74,24599.00
368.43,24821.00
371.12,24715.00
373.80,24736.00
376.48,24832.00
379.17,24959.00
381.85,25224.00
384.52,25149.00
387.20,25171.00
389.87,25404.00
392.54,25552.00
395.21,25181.00
397.88,25022.00
400.55,25276.00
403.21,25160.00
405.87,25086.00
408.53,25212.00
411.19,25181.00
413.84,25181.00
416.50,25096.00
419.15,24959.00
421.80,24779.00
424.45,24927.00
427.10,24916.00
429.74,24705.00
432.38,24737.00
435.02,24800.00
437.66,24842.00
440.30,24790.00
442.93,24705.00
445.56,24609.00
448.19,24673.00
450.82,24779.00
453.45,24693.00
456.07,24715.00
458.70,24779.00
461.32,24969.00
463.94,24990.00
466.55,25054.00
469.17,24917.00
471.78,24821.00
474.39,24747.00
477.00,24810.00
479.61,25065.00
482.22,25023.00
484.82,24800.00
487.42,24811.00
490.02,24683.00
492.62,24779.00
495.21,24906.00
497.81,24832.00
500.40,24779.00
502.99,24557.00
505.58,24345.00
508.17,24377.00
510.75,24238.00
513.33,24238.00
515.91,24175.00
518.49,24144.00
521.07,24058.00
523.65,24069.00
526.22,24238.00
528.79,24122.00
531.36,24324.00
533.93,24397.00
536.49,24133.00
539.06,24080.00
541.62,24016.00
544.18,24207.00
546.74,24165.00
549.30,24101.00
551.85,24027.00
554.40,24048.00
556.95,23963.00
559.50,23921.00
562.05,23794.00
564.59,23730.00
567.14,23741.00
569.68,23857.00
572.22,23963.00
574.76,23942.00
577.29,23710.00
579.83,23529.00
582.36,23498.00
584.89,23297.00
587.42,23318.00
589.95,23211.00
592.47,23223.00
594.99,23233.00
597.52,23021.00
600.04,22925.00
602.55,23052.00
605.07,23010.00
607.58,22841.00
610.09,22958.00
612.60,23042.00
615.11,22915.00
617.62,22820.00
620.12,22799.00
622.63,22576.00
625.13,22523.00
627.63,22481.00
630.13,22343.00
632.62,22343.00
635.12,22343.00
637.61,22089.00
640.10,22110.00
642.59,22164.00
645.07,21983.00
647.56,21856.00
650.04,21824.00
652.52,21877.00
655.00,22099.00
657.48,21887.00
659.96,21665.00
662.43,21665.00
664.90,21793.00
667.37,21888.00
669.84,21782.00
672.31,21772.00
674.78,21687.00
677.24,21645.00
679.70,21718.00
682.16,21813.00
684.62,21834.00
687.08,21549.00
689.53,21517.00
691.98,21517.00
694.43,21433.00
696.88,21432.00
699.33,21348.00
701.78,21211.00
704.22,21199.00
706.66,21051.00
709.10,21009.00
711.54,21072.00
713.98,21104.00
716.42,21061.00
718.85,21115.00
721.28,21327.00
723.71,21633.00
726.14,21888.00
728.57,22227.00
730.99,22226.00
733.41,22343.00
735.83,22173.00
738.25,21665.00
740.67,21326.00
743.09,20946.00
745.50,20564.00
747.91,20332.00
750.33,20098.00
752.73,19960.00
755.14,19833.00
757.55,19845.00
759.95,20055.00
762.35,19929.00
764.75,19770.00
767.15,19812.00
769.55,19749.00
771.95,19801.00
774.34,19727.00
776.73,19654.00
779.12,19601.00
781.51,19548.00
783.90,19368.00
786.28,19653.00
788.67,19749.00
791.05,19685.00
793.43,19664.00
795.80,19601.00
798.18,19495.00
800.56,19325.00
802.93,19208.00
805.30,19135.00
807.67,19272.00
810.04,19410.00
812.40,19241.00
814.77,19061.00
817.13,18848.00
819.49,18806.00
821.85,18616.00
824.21,18404.00
826.57,18435.00
828.92,18362.00
831.27,18298.00
833.63,18383.00
835.98,18340.00
838.32,18319.00
840.67,18351.00
843.01,18107.00
845.36,18065.00
847.70,18118.00
850.04,18097.00
852.37,18044.00
854.71,18023.00
857.05,17938.00
859.38,17769.00
861.71,17705.00
864.04,17811.00
866.37,17800.00
868.69,17673.00
871.02,17472.00
873.34,17631.00
875.66,17631.00
877.98,17377.00
880.30,17282.00
882.62,17420.00
884.93,17546.00
887.24,17356.00
889.55,17345.00
891.86,17494.00
894.17,17355.00
896.48,17112.00
898.78,16996.00
901.09,17007.00
903.39,16985.00
905.69,17006.00
907.99,17070.00
910.28,16921.00
912.58,16974.00
914.87,17175.00
917.16,17070.00
919.45,17101.00
921.74,17080.00
924.03,16889.00
926.31,16826.00
928.60,16879.00
930.88,16646.00
933.16,16720.00
935.44,16657.00
937.72,16540.00
939.99,16614.00
942.26,16710.00
944.54,16667.00
946.81,16498.00
949.08,16424.00
951.34,16307.00
953.61,16445.00
955.87,16540.00
958.14,16424.00
960.40,16275.00
962.66,16254.00
964.92,16212.00
967.17,16096.00
969.43,15947.00
971.68,15862.00
973.93,15799.00
976.18,15757.00
978.43,15693.00
980.68,15651.00
982.92,15703.00
985.17,15650.00
987.41,15534.00
989.65,15545.00
991.89,15376.00
994.12,15344.00
996.36,15323.00
998.59,15290.00
1000.83,15396.00
1003.06,15365.00
1005.29,15228.00
1007.51,15259.00
1009.74,15322.00
1011.97,15312.00
1014.19,15290.00
1016.41,15121.00
1018.63,15132.00
1020.85,15206.00
1023.07,15101.00
1025.28,15057.00
1027.49,15142.00
1029.71,15206.00
1031.92,15322.00
1034.13,15185.00
1036.33,14846.00
1038.54,14888.00
1040.74,15015.00
1042.95,15047.00
1045.15,14963.00
1047.35,14994.00
1049.55,14825.00
1051.74,14623.00
1053.94,14729.00
1056.13,14719.00
1058.32,14698.00
1060.51,14550.00
1062.70,14433.00
1064.89,14517.00
1067.08,14476.00
1069.26,14454.00
1071.44,14454.00
1073.63,14422.00
1075.81,14412.00
1077.98,14465.00
1080.16,14465.00
1082.34,14380.00
1084.51,14264.00
1086.68,14211.00
1088.85,14179.00
1091.02,14147.00
1093.19,14148.00
1095.35,14073.00
1097.52,14052.00
1099.68,13956.00
1101.84,13872.00
1104.00,13914.00
1106.16,13819.00
1108.32,13692.00
1110.48,13745.00
1112.63,13808.00
1114.78,13745.00
1116.93,13702.00
1119.08,13723.00
1121.23,13682.00
1123.38,13480.00
1125.52,13522.00
1127.67,13681.00
1129.81,13596.00
1131.95,13427.00
1134.09,13364.00
1136.22,13363.00
1138.36,13258.00
1140.50,13120.00
1142.63,13141.00
1144.76,13131.00
1146.89,13131.00
1149.02,13131.00
1151.15,13067.00
1153.27,13025.00
1155.40,12993.00
1157.52,12929.00
1159.64,12982.00
1161.76,12951.00
1163.88,12898.00
1165.99,13109.00
1168.11,13099.00
1170.22,12918.00
1172.34,12813.00
1174.45,12644.00
1176.56,12654.00
1178.66,12792.00
1180.77,12844.00
1182.88,12749.00
1184.98,12686.00
1187.08,12718.00
1189.18,12739.00
1191.28,12760.00
1193.38,12771.00
1195.47,12611.00
1197.57,12432.00
1199.66,12559.00
1201.75,12591.00
1203.85,12506.00
1205.93,12464.00
1208.02,12379.00
1210.11,12516.00
1212.19,12622.00
1214.28,12622.00
1216.36,12506.00
1218.44,12548.00
1220.52,12686.00
1222.59,12739.00
1224.67,12665.00
1226.74,12506.00
1228.82,12421.00
1230.89,12432.00
1232.96,12505.00
1235.03,12432.00
1237.10,12368.00
1239.16,12347.00
1241.23,12411.00
1243.29,12485.00
1245.35,12421.00
1247.41,12283.00
1249.47,12125.00
1251.53,12251.00
1253.58,12167.00
1255.64,12072.00
1257.69,12019.00
1259.74,11934.00
1261.79,11902.00
1263.84,11966.00
1265.89,12008.00
1267.93,12050.00
1269.98,12050.00
1272.02,11881.00
1274.06,11679.00
1276.10,11659.00
1278.14,11712.00
1280.18,11722.00
1282.22,11744.00
1284.25,11669.00
1286.28,11510.00
1288.32,11447.00
1290.35,11510.00
1292.38,11574.00
1294.40,11500.00
1296.43,11437.00
1298.46,11372.00
1300.48,11405.00
1302.50,11468.00
1304.52,11352.00
1306.54,11288.00
1308.56,11394.00
1310.58,11405.00
1312.59,11415.00
1314.60,11574.00
1316.62,11564.00
1318.63,11542.00
1320.64,11585.00
1322.65,11797.00
1324.65,12008.00
1326.66,12019.00
1328.66,11924.00
1330.66,11891.00
1332.67,12008.00
1334.67,11955.00
1336.66,11807.00
1338.66,11690.00
1340.66,11585.00
1342.65,11436.00
1344.65,11383.00
1346.64,11373.00
1348.63,11235.00
1350.62,11097.00
1352.60,11055.00
1354.59,11065.00
1356.57,11108.00
1358.56,10960.00
1360.54,10854.00
1362.52,10844.00
1364.50,10939.00
1366.48,10917.00
1368.46,10906.00
1370.43,10886.00
1372.41,10833.00
1374.38,10737.00
1376.35,10547.00
1378.32,10463.00
1380.29,10674.00
1382.25,10833.00
1384.22,10653.00
1386.18,10473.00
1388.15,10536.00
1390.11,10547.00
1392.07,10610.00
1394.03,10610.00
1395.99,10546.00
1397.94,10610.00
1399.90,10568.00
1401.85,10536.00
1403.80,10441.00
1405.76,10409.00
1407.71,10346.00
1409.65,10229.00
1411.60,10187.00
1413.55,10155.00
1415.49,10198.00
1417.44,10144.00
1419.38,10103.00
1421.32,10070.00
1423.26,9890.00
1425.19,9901.00
1427.13,9932.00
1429.07,9827.00
1431.00,9816.00
1432.93,9859.00
1434.86,9933.00
1436.79,9806.00
1438.72,9668.00
1440.65,9774.00
1442.57,9795.00
1444.50,9710.00
1446.42,9657.00
1448.34,9763.00
1450.26,9817.00
1452.18,9763.00
1454.10,9700.00
1456.02,9657.00
1457.93,9583.00
1459.85,9519.00
1461.76,9594.00
1463.67,9594.00
1465.58,9573.00
1467.49,9477.00
1469.40,9350.00
1471.31,9329.00
1473.21,9371.00
1475.11,9350.00
1477.02,9350.00
1478.92,9307.00
1480.82,9266.00
1482.72,9308.00
1484.61,9308.00
1486.51,9319.00
1488.40,9382.00
1490.30,9287.00
1492.19,9160.00
1494.08,9149.00
1495.97,9245.00
1497.86,9202.00
1499.74,9022.00
1501.63,9118.00
1503.51,9213.00
1505.40,9096.00
1507.28,9011.00
1509.16,9096.00
1511.04,9022.00
1512.92,8906.00
1514.79,8979.00
1516.67,9022.00
1518.54,9117.00
1520.42,8916.00
1522.29,8947.00
1524.16,9043.00
1526.03,8948.00
1527.89,8948.00
1529.76,9011.00
1531.63,8948.00
1533.49,8884.00
1535.35,8747.00
1537.21,8842.00
1539.07,8906.00
1540.93,8778.00
1542.79,8715.00
1544.65,8757.00
1546.50,8779.00
1548.36,8630.00
1550.21,8641.00
1552.06,8620.00
1553.91,8461.00
1555.76,8450.00
1557.61,8525.00
1559.45,8503.00
1561.30,8461.00
1563.14,8397.00
1564.98,8355.00
1566.82,8418.00
1568.67,8397.00
1570.50,8366.00
1572.34,8217.00
1574.18,8281.00
1576.01,8355.00
1577.85,8302.00
1579.68,8238.00
1581.51,8174.00
1583.34,8048.00
1585.17,8048.00
1587.00,8069.00
1588.82,8069.00
1590.65,8164.00
1592.47,8091.00
1594.30,8069.00
1596.12,8006.00
1597.94,7995.00
1599.76,7963.00
1601.57,7815.00
1603.39,7804.00
1605.21,7825.00
1607.02,7752.00
1608.83,7719.00
1610.64,7698.00
1612.45,7698.00
1614.26,7667.00
1616.07,7572.00
1617.88,7497.00
1619.68,7551.00
1621.49,7592.00
1623.29,7508.00
1625.09,7497.00
1626.89,7466.00
1628.69,7391.00
1630.49,7455.00
1632.29,7476.00
1634.08,7380.00
1635.88,7359.00
1637.67,7307.00
1639.46,7317.00
1641.25,7360.00
1643.04,7349.00
1644.83,7190.00
1646.62,7180.00
1648.41,7232.00
1650.19,7222.00
1651.97,7232.00
1653.76,7222.00
1655.54,7158.00
1657.32,7053.00
1659.10,7010.00
1660.88,6915.00
1662.65,6989.00
1664.43,7020.00
1666.20,6957.00
1667.97,6904.00
1669.75,6883.00
1671.52,6873.00
1673.29,6862.00
1675.05,6777.00
1676.82,6777.00
1678.59,6830.00
1680.35,6767.00
1682.11,6883.00
1683.88,6840.00
1685.64,6629.00
1687.40,6575.00
1689.16,6692.00
1690.91,6639.00
1692.67,6544.00
1694.42,6587.00
1696.18,6566.00
1697.93,6576.00
1699.68,6523.00
1701.43,6385.00
1703.18,6470.00
1704.93,6406.00
1706.68,6311.00
1708.42,6354.00
1710.17,6354.00
1711.91,6364.00
1713.65,6269.00
1715.39,6195.00
1717.13,6227.00
1718.87,6237.00
1720.61,6290.00
1722.35,6205.00
1724.08,6121.00
1725.81,6036.00
1727.55,5994.00
1729.28,6057.00
1731.01,6046.00
1732.74,5940.00
1734.47,5983.00
1736.19,5983.00
1737.92,5962.00
1739.64,6057.00
1741.37,6046.00
1743.09,5930.00
1744.81,5940.00
1746.53,5919.00
1748.25,5920.00
1749.97,5887.00
1751.68,5845.00
1753.40,5761.00
1755.11,5781.00
1756.83,5835.00
1758.54,5782.00
1760.25,5750.00
1761.96,5676.00
1763.67,5729.00
1765.38,5729.00
1767.08,5633.00
1768.79,5634.00
1770.49,5570.00
1772.19,5623.00
1773.90,5729.00
1775.60,5687.00
1777.30,5633.00
1778.99,5687.00
1780.69,5707.00
1782.39,5602.00
1784.08,5634.00
1785.78,5570.00
1787.47,5411.00
1789.16,5401.00
1790.85,5454.00
1792.54,5453.00
1794.23,5390.00
1795.91,5411.00
1797.60,5464.00
1799.28,5454.00
1800.97,5475.00
1802.65,5432.00
1804.33,5411.00
1806.01,5369.00
1807.69,5432.00
1809.37,5485.00
1811.05,5369.00
1812.72,5390.00
1814.40,5369.00
1816.07,5348.00
1817.74,5295.00
1819.41,5263.00
1821.08,5295.00
1822.75,5337.00
1824.42,5358.00
1826.09,5327.00
1827.75,5220.00
1829.42,5200.00
1831.08,5178.00
1832.74,5147.00
1834.40,5156.00
1836.06,5199.00
1837.72,5093.00
1839.38,5030.00
1841.04,5082.00
1842.69,5093.00
1844.35,5093.00
1846.00,5051.00
1847.65,5019.00
1849.30,5051.00
1850.95,5083.00
1852.60,5083.00
1854.25,4956.00
1855.90,4882.00
1857.54,4902.00
1859.19,4966.00
1860.83,5009.00
1862.47,4988.00
1864.12,4924.00
1865.76,4850.00
1867.40,4881.00
1869.03,4871.00
1870.67,4797.00
1872.31,4723.00
1873.94,4775.00
1875.57,4839.00
1877.21,4734.00
1878.84,4754.00
1880.47,4797.00
1882.10,4734.00
1883.73,4680.00
1885.35,4649.00
1886.98,4681.00
1888.61,4648.00
1890.23,4596.00
1891.85,4575.00
1893.47,4574.00
1895.09,4606.00
1896.71,4606.00
1898.33,4564.00
1899.95,4543.00
1901.57,4543.00
1903.18,4564.00
1904.80,4595.00
1906.41,4522.00
1908.02,4480.00
1909.63,4553.00
1911.24,4500.00
1912.85,4479.00
1914.46,4479.00
1916.07,4405.00
1917.67,4373.00
1919.28,4310.00
1920.88,4320.00
1922.48,4394.00
1924.08,4395.00
1925.68,4320.00
1927.28,4288.00
1928.88,4257.00
1930.48,4235.00
1932.07,4331.00
1933.67,4331.00
1935.26,4288.00
1936.86,4267.00
1938.45,4203.00
1940.04,4225.00
1941.63,4288.00
1943.22,4235.00
1944.80,4056.00
1946.39,4035.00
1947.98,4108.00
1949.56,4045.00
1951.14,4045.00
1952.73,4098.00
1954.31,4024.00
1955.89,3929.00
1957.47,3971.00
1959.05,4045.00
1960.62,4035.00
1962.20,3971.00
1963.77,4024.00
1965.35,4087.00
1966.92,4014.00
1968.49,4077.00
1970.06,4013.00
1971.63,3950.00
1973.20,3886.00
1974.77,3844.00
1976.34,3897.00
1977.90,3961.00
1979.47,3971.00
1981.03,3907.00
1982.59,3907.00
1984.15,3907.00
1985.71,3992.00
1987.27,4013.00
1988.83,3950.00
1990.39,3918.00
1991.94,3854.00
1993.50,3738.00
1995.05,3833.00
1996.61,3865.00
1998.16,3780.00
1999.71,3748.00
2001.26,3802.00
2002.81,3844.00
2004.36,3801.00
2005.91,3780.00
2007.45,3781.00
2009.00,3802.00
2010.54,3749.00
2012.08,3770.00
2013.62,3738.00
2015.17,3769.00
2016.71,3780.00
2018.24,3706.00
2019.78,3695.00
2021.32,3738.00
2022.85,3717.00
2024.39,3738.00
2025.92,3738.00
2027.46,3685.00
2028.99,3622.00
2030.52,3580.00
2032.05,3589.00
2033.58,3632.00
2035.10,3632.00
2036.63,3632.00
2038.16,3675.00
2039.68,3674.00
2041.21,3579.00
2042.73,3516.00
2044.25,3569.00
2045.77,3526.00
2047.29,3579.00
2048.81,3526.00
2050.33,3441.00
2051.84,3389.00
2053.36,3400.00
2054.87,3409.00
2056.39,3474.00
2057.90,3484.00
2059.41,3420.00
2060.92,3357.00
2062.43,3421.00
2063.94,3335.00
2065.45,3325.00
2066.95,3315.00
2068.46,3325.00
2069.96,3347.00
2071.47,3336.00
2072.97,3336.00
2074.47,3346.00
2075.97,3272.00
2077.47,3314.00
2078.97,3282.00
2080.47,3198.00
2081.96,3219.00
2083.46,3230.00
2084.95,3198.00
2086.45,3198.00
2087.94,3198.00
2089.43,3219.00
2090.92,3198.00
2092.41,3209.00
2093.90,3166.00
2095.39,3177.00
2096.88,3229.00
2098.36,3240.00
2099.85,3135.00
2101.33,3082.00
2102.81,3103.00
2104.30,3187.00
2105.78,3081.00
2107.26,3060.00
2108.74,3018.00
2110.21,3050.00
2111.69,3082.00
2113.17,2997.00
2114.64,3018.00
2116.12,2997.00
2117.59,3007.00
2119.06,3050.00
2120.53,3040.00
2122.00,2976.00
2123.47,2944.00
2124.94,2901.00
2126.41,2891.00
2127.87,2923.00
2129.34,2954.00
2130.80,2891.00
2132.27,2880.00
2133.73,2933.00
2135.19,2827.00
2136.65,2775.00
2138.11,2743.00
2139.57,2722.00
2141.03,2764.00
2142.48,2806.00
2143.94,2848.00
2145.39,2785.00
2146.85,2753.00
2148.30,2775.00
2149.75,2764.00
2151.20,2838.00
2152.65,2775.00
2154.10,2742.00
2155.55,2764.00
2157.00,2838.00
2158.44,2817.00
2159.89,2753.00
2161.33,2753.00
2162.78,2796.00
2164.22,2795.00
2165.66,2774.00
2167.10,2785.00
2168.54,2764.00
2169.98,2690.00
2171.42,2637.00
2172.85,2636.00
2174.29,2669.00
2175.72,2626.00
2177.16,2615.00
2178.59,2637.00
2180.02,2605.00
2181.45,2679.00
2182.88,2721.00
2184.31,2636.00
2185.74,2542.00
2187.17,2605.00
2188.59,2604.00
2190.02,2637.00
2191.44,2594.00
2192.87,2583.00
2194.29,2573.00
2195.71,2573.00
2197.13,2636.00
2198.55,2626.00
2199.97,2583.00
2201.39,2636.00
2202.81,2647.00
2204.22,2647.00
2205.64,2541.00
2207.05,2499.00
2208.46,2478.00
2209.88,2467.00
2211.29,2531.00
2212.70,2541.00
2214.11,2584.00
2215.52,2467.00
2216.92,2425.00
2218.33,2393.00
2219.74,2382.00
2221.14,2393.00
2222.54,2435.00
2223.95,2425.00
2225.35,2425.00
2226.75,2383.00
2228.15,2404.00
2229.55,2372.00
2230.95,2319.00
2232.35,2372.00
2233.74,2425.00
2235.14,2425.00
2236.53,2382.00
2237.93,2330.00
2239.32,2277.00
2240.71,2224.00
2242.10,2351.00
2243.49,2350.00
2244.88,2245.00
2246.27,2287.00
2247.66,2319.00
2249.04,2309.00
2250.43,2308.00
2251.81,2287.00
2253.20,2224.00
2254.58,2244.00
2255.96,2266.00
2257.34,2244.00
2258.72,2182.00
2260.10,2181.00
2261.48,2182.00
2262.86,2277.00
2264.23,2255.00
2265.61,2181.00
2266.98,2161.00
2268.36,2181.00
2269.73,2149.00
2271.10,2160.00
2272.47,2192.00
2273.84,2139.00
2275.21,2139.00
2276.58,2150.00
2277.95,2149.00
2279.31,2097.00
2280.68,2107.00
2282.05,2170.00
2283.41,2118.00
2284.77,1991.00
2286.13,1937.00
2287.50,2054.00
2288.86,2108.00
2290.22,2075.00
2291.57,2043.00
2292.93,2023.00
2294.29,2033.00
2295.64,2055.00
2297.00,2023.00
2298.35,1959.00
2299.71,1948.00
2301.06,2034.00
2302.41,2001.00
2303.76,2033.00
2305.11,1990.00
2306.46,1959.00
2307.81,1949.00
2309.15,1970.00
2310.50,1938.00
2311.84,1885.00
2313.19,1991.00
2314.53,1959.00
2315.87,1949.00
2317.22,1969.00
2318.56,1896.00
2319.90,1906.00
2321.24,1906.00
2322.57,1906.00
2323.91,1842.00
2325.25,1800.00
2326.58,1864.00
2327.92,1906.00
2329.25,1853.00
2330.58,1832.00
2331.91,1800.00
2333.25,1853.00
2334.58,1842.00
2335.90,1843.00
2337.23,1811.00
2338.56,1769.00
2339.89,1768.00
2341.21,1864.00
2342.54,1853.00
2343.86,1790.00
2345.19,1801.00
2346.51,1821.00
2347.83,1811.00
2349.15,1821.00
2350.47,1853.00
2351.79,1800.00
2353.11,1800.00
2354.42,1864.00
2355.74,1758.00
2357.06,1683.00
2358.37,1652.00
2359.68,1705.00
2361.00,1811.00
2362.31,1810.00
2363.62,1726.00
2364.93,1705.00
2366.24,1705.00
2367.55,1726.00
2368.86,1768.00
2370.16,1694.00
2371.47,1652.00
2372.77,1652.00
2374.08,1673.00
2375.38,1631.00
2376.68,1641.00
2377.98,1651.00
2379.29,1673.00
2380.59,1705.00
2381.88,1641.00
2383.18,1652.00
2384.48,1651.00
2385.78,1630.00
2387.07,1642.00
2388.37,1631.00
2389.66,1556.00
2390.95,1504.00
2392.25,1567.00
2393.54,1610.00
2394.83,1567.00
2396.12,1578.00
2397.41,1683.00
2398.70,1673.00
2399.98,1673.00
2401.27,1609.00
2402.55,1557.00
2403.84,1525.00
2405.12,1578.00
2406.41,1546.00
2407.69,1546.00
2408.97,1577.00
2410.25,1568.00
2411.53,1503.00
2412.81,1503.00
2414.09,1482.00
2415.36,1483.00
2416.64,1535.00
2417.91,1503.00
2419.19,1525.00
2420.46,1546.00
2421.74,1557.00
2423.01,1546.00
2424.28,1546.00
2425.55,1524.00
2426.82,1450.00
2428.09,1398.00
2429.36,1451.00
2430.62,1472.00
2431.89,1472.00
2433.15,1440.00
2434.42,1419.00
2435.68,1440.00
2436.94,1461.00
2438.21,1472.00
2439.47,1461.00
2440.73,1440.00
2441.99,1430.00
2443.25,1387.00
2444.51,1440.00
2445.76,1419.00
2447.02,1398.00
2448.27,1388.00
2449.53,1366.00
2450.78,1398.00
2452.03,1451.00
2453.29,1450.00
2454.54,1440.00
2455.79,1376.00
2457.04,1334.00
2458.29,1335.00
2459.54,1388.00
2460.78,1345.00
2462.03,1324.00
2463.27,1356.00
2464.52,1334.00
2465.76,1345.00
2467.01,1313.00
2468.25,1292.00
2469.49,1250.00
2470.73,1303.00
2471.97,1366.00
2473.21,1314.00
2474.45,1313.00
2475.69,1334.00
2476.92,1313.00
2478.16,1281.00
2479.39,1260.00
2480.63,1229.00
2481.86,1176.00
2483.09,1250.00
2484.32,1313.00
2485.56,1260.00
2486.79,1281.00
2488.02,1197.00
2489.24,1249.00
2490.47,1271.00
2491.70,1260.00
2492.92,1218.00
2494.15,1207.00
2495.37,1249.00
2496.60,1260.00
2497.82,1260.00
2499.04,1229.00
2500.26,1250.00
2501.48,1207.00
2502.70,1186.00
2503.92,1175.00
2505.14,1218.00
2506.36,1228.00
2507.58,1207.00
2508.79,1239.00
2510.01,1261.00
2511.22,1229.00
2512.43,1165.00
2513.64,1186.00
2514.86,1122.00
2516.07,1112.00
2517.28,1122.00
2518.49,1112.00
2519.70,1112.00
2520.90,1186.00
2522.11,1123.00
2523.32,1155.00
2524.52,1186.00
2525.73,1154.00
2526.93,1091.00
2528.13,1123.00
2529.33,1112.00
2530.54,1101.00
2531.74,1101.00
2532.94,1102.00
2534.14,1080.00
2535.33,1123.00
2536.53,1080.00
2537.73,1080.00
2538.92,1133.00
2540.12,1091.00
2541.31,1091.00
2542.51,1122.00
2543.70,1112.00
2544.89,1028.00
2546.08,1048.00
2547.27,1122.00
2548.46,1101.00
2549.65,1091.00
2550.84,1080.00
2552.03,1080.00
2553.21,1091.00
2554.40,1112.00
2555.58,1122.00
2556.77,1038.00
2557.95,1038.00
2559.13,1017.00
2560.31,1028.00
2561.50,1059.00
2562.68,1017.00
2563.85,1059.00
2565.03,1049.00
2566.21,1017.00
2567.39,1016.00
2568.56,1027.00
2569.74,1070.00
2570.91,1059.00
2572.09,1006.00
2573.26,1017.00
2574.43,1038.00
2575.61,1006.00
2576.78,964.00
2577.95,932.00
2579.12,932.00
2580.29,985.00
2581.45,953.00
2582.62,996.00
2583.79,975.00
2584.95,953.00
2586.12,931.00
2587.28,910.00
2588.44,932.00
2589.61,953.00
2590.77,953.00
2591.93,932.00
2593.09,890.00
2594.25,932.00
2595.41,942.00
2596.56,932.00
2597.72,889.00
2598.88,911.00
2600.03,910.00
2601.19,890.00
2602.34,911.00
2603.50,975.00
2604.65,1006.00
2605.80,963.00
2606.95,900.00
2608.10,848.00
2609.25,890.00
2610.40,879.00
2611.55,858.00
2612.70,879.00
2613.84,857.00
2614.99,900.00
2616.13,890.00
2617.28,921.00
2618.42,889.00
2619.56,868.00
2620.71,921.00
2621.85,932.00
2622.99,869.00
2624.13,858.00
2625.27,837.00
2626.40,847.00
2627.54,890.00
2628.68,857.00
2629.81,879.00
2630.95,879.00
2632.08,890.00
2633.22,847.00
2634.35,858.00
2635.48,847.00
2636.61,847.00
2637.74,826.00
2638.87,784.00
2640.00,837.00
2641.13,847.00
2642.26,815.00
2643.39,826.00
2644.51,815.00
2645.64,752.00
2646.76,783.00
2647.89,794.00
2649.01,752.00
2650.13,784.00
2651.25,848.00
2652.38,784.00
2653.50,720.00
2654.62,721.00
2655.73,763.00
2656.85,773.00
2657.97,751.00
2659.09,730.00
2660.20,815.00
2661.32,773.00
2662.43,794.00
2663.55,741.00
2664.66,762.00
2665.77,763.00
2666.88,741.00
2667.99,784.00
2669.10,816.00
2670.21,773.00
2671.32,752.00
2672.43,752.00
2673.54,752.00
2674.64,762.00
2675.75,730.00
2676.85,709.00
2677.96,710.00
2679.06,731.00
2680.16,741.00
2681.26,699.00
2682.37,731.00
2683.47,720.00
2684.57,720.00
2685.66,699.00
2686.76,678.00
2687.86,689.00
2688.96,678.00
2690.05,667.00
2691.15,688.00
2692.24,709.00
2693.34,636.00
2694.43,657.00
2695.52,699.00
2696.62,593.00
2697.71,614.00
2698.80,688.00
2699.89,636.00
2700.98,614.00
2702.06,635.00
2703.15,625.00
2704.24,646.00
2705.32,783.00
2706.41,720.00
2707.49,656.00
2708.58,688.00
2709.66,625.00
2710.74,657.00
2711.83,678.00
2712.91,657.00
2713.99,678.00
2715.07,688.00
2716.15,678.00
2717.22,635.00
2718.30,646.00
2719.38,677.00
2720.45,635.00
2721.53,603.00
2722.60,593.00
2723.68,614.00
2724.75,593.00
2725.82,646.00
2726.89,678.00
2727.97,615.00
2729.04,625.00
2730.11,656.00
2731.17,667.00
2732.24,699.00
2733.31,709.00
2734.38,657.00
2735.44,603.00
2736.51,593.00
2737.57,583.00
2738.64,593.00
2739.70,657.00
2740.76,614.00
2741.82,593.00
2742.89,603.00
2743.95,583.00
2745.01,562.00
2746.07,550.00
2747.12,572.00
2748.18,572.00
2749.24,529.00
2750.29,529.00
2751.35,551.00
2752.40,583.00
2753.46,540.00
2754.51,551.00
2755.57,604.00
2756.62,540.00
2757.67,561.00
2758.72,540.00
2759.77,529.00
2760.82,519.00
2761.87,519.00
2762.91,551.00
2763.96,561.00
2765.01,572.00
2766.05,583.00
2767.10,624.00
2768.14,583.00
2769.19,551.00
2770.23,572.00
2771.27,561.00
2772.31,519.00
2773.35,572.00
2774.40,530.00
2775.43,508.00
2776.47,529.00
2777.51,540.00
2778.55,551.00
2779.59,487.00
2780.62,466.00
2781.66,529.00
2782.69,487.00
2783.73,508.00
2784.76,551.00
2785.79,550.00
2786.82,508.00
2787.85,487.00
2788.89,509.00
2789.92,498.00
2790.94,487.00
2791.97,444.00
2793.00,455.00
2794.03,530.00
2795.05,540.00
2796.08,550.00
2797.11,529.00
2798.13,541.00
2799.15,551.00
2800.18,497.00
2801.20,466.00
2802.22,530.00
2803.24,508.00
2804.26,519.00
2805.28,498.00
2806.30,413.00
2807.32,487.00
2808.34,498.00
2809.35,445.00
2810.37,466.00
2811.39,540.00
2812.40,509.00
2813.41,487.00
2814.43,487.00
2815.44,434.00
2816.45,487.00
2817.46,498.00
2818.48,466.00
2819.49,456.00
2820.49,487.00
2821.50,445.00
2822.51,434.00
2823.52,508.00
2824.53,476.00
2825.53,423.00
2826.54,434.00
2827.54,424.00
2828.55,445.00
2829.55,466.00
2830.55,487.00
2831.55,423.00
2832.56,445.00
2833.56,455.00
2834.56,424.00
2835.56,402.00
2836.56,445.00
2837.55,371.00
2838.55,413.00
2839.55,413.00
2840.54,413.00
2841.54,456.00
2842.53,508.00
2843.53,477.00
2844.52,444.00
2845.51,445.00
2846.51,413.00
2847.50,413.00
2848.49,434.00
2849.48,434.00
2850.47,424.00
2851.46,371.00
2852.45,392.00
2853.43,456.00
2854.42,444.00
2855.41,392.00
2856.39,371.00
2857.38,402.00
2858.36,477.00
2859.34,444.00
2860.33,392.00
2861.31,382.00
2862.29,402.00
2863.27,392.00
2864.25,382.00
2865.23,381.00
2866.21,360.00
2867.19,296.00
2868.17,350.00
2869.14,402.00
2870.12,413.00
2871.09,423.00
2872.07,381.00
2873.04,360.00
2874.02,381.00
2874.99,370.00
2875.96,349.00
2876.93,370.00
2877.91,424.00
2878.88,381.00
2879.85,360.00
2880.82,338.00
2881.78,350.00
2882.75,297.00
2883.72,338.00
2884.69,371.00
2885.65,360.00
2886.62,317.00
2887.58,328.00
2888.55,339.00
2889.51,317.00
2890.47,381.00
2891.43,424.00
2892.39,413.00
2893.36,381.00
2894.31,381.00
2895.27,370.00
2896.23,360.00
2897.19,338.00
2898.15,392.00
2899.11,381.00
2900.06,339.00
2901.02,360.00
2901.97,403.00
2902.93,381.00
2903.88,391.00
2904.83,413.00
2905.79,360.00
2906.74,360.00
2907.69,349.00
2908.64,328.00
2909.59,339.00
2910.54,339.00
2911.49,307.00
2912.43,339.00
2913.38,370.00
2914.33,317.00
2915.27,318.00
2916.22,350.00
2917.16,381.00
2918.11,360.00
2919.05,339.00
2919.99,382.00
2920.94,402.00
2921.88,371.00
2922.82,328.00
2923.76,318.00
2924.70,382.00
2925.64,392.00
2926.58,371.00
2927.51,381.00
2928.45,392.00
2929.39,360.00
2930.32,350.00
2931.26,413.00
2932.19,329.00
2933.13,307.00
2934.06,339.00
2934.99,360.00
2935.92,317.00
2936.86,360.00
2937.79,381.00
2938.72,318.00
2939.65,286.00
2940.57,339.00
2941.50,381.00
2942.43,360.00
2943.36,350.00
2944.28,360.00
2945.21,317.00
2946.13,307.00
2947.06,360.00
2947.98,371.00
2948.91,339.00
2949.83,350.00
2950.75,307.00
2951.67,275.00
2952.59,317.00
2953.51,339.00
2954.43,328.00
2955.35,296.00
2956.27,317.00
2957.19,297.00
2958.10,307.00
2959.02,339.00
2959.94,371.00
2960.85,296.00
2961.77,275.00
2962.68,254.00
2963.59,296.00
2964.51,318.00
2965.42,317.00
2966.33,296.00
2967.24,317.00
2968.15,307.00
2969.06,276.00
2969.97,308.00
2970.88,297.00
2971.78,244.00
2972.69,318.00
2973.60,328.00
2974.50,307.00
2975.41,275.00
2976.31,350.00
2977.22,350.00
2978.12,307.00
2979.02,286.00
2979.93,275.00
2980.83,286.00
2981.73,233.00
2982.63,275.00
2983.53,297.00
2984.43,296.00
2985.33,286.00
2986.22,296.00
2987.12,254.00
2988.02,232.00
2988.91,275.00
2989.81,212.00
2990.70,275.00
2991.60,276.00
2992.49,276.00
2993.38,286.00
2994.28,222.00
2995.17,233.00
2996.06,244.00
2996.95,254.00
2997.84,244.00
2998.73,318.00
2999.62,329.00
3000.51,265.00
3001.40,254.00
3002.28,254.00
3003.17,254.00
3004.05,275.00
3004.94,233.00
3005.82,212.00
3006.71,222.00
3007.59,212.00
3008.47,201.00
3009.36,190.00
3010.24,190.00
3011.12,222.00
3012.00,211.00
3012.88,127.00
3013.76,191.00
3014.64,191.00
3015.51,233.00
3016.39,243.00
3017.27,255.00
3018.14,223.00
3019.02,169.00
3019.89,180.00
3020.77,191.00
3021.64,190.00
3022.52,222.00
3023.39,244.00
3024.26,254.00
3025.13,222.00
3026.00,201.00
3026.87,190.00
3027.74,222.00
3028.61,223.00
3029.48,233.00
3030.35,191.00
3031.21,223.00
3032.08,180.00
3032.95,190.00
3033.81,233.00
3034.68,254.00
3035.54,212.00
3036.40,191.00
3037.27,212.00
3038.13,233.00
3038.99,201.00
3039.85,212.00
3040.71,212.00
3041.57,233.00
3042.43,244.00
3043.29,233.00
3044.15,202.00
3045.01,170.00
3045.86,212.00
3046.72,212.00
3047.58,212.00
3048.43,191.00
3049.29,190.00
3050.14,170.00
3050.99,212.00
3051.85,223.00
3052.70,149.00
3053.55,201.00
3054.40,275.00
3055.25,244.00
3056.10,201.00
3056.95,201.00
3057.80,170.00
3058.65,244.00
3059.50,190.00
3060.34,191.00
3061.19,233.00
3062.04,244.00
3062.88,158.00
3063.73,191.00
3064.57,191.00
3065.42,169.00
3066.26,169.00
3067.10,170.00
3067.94,190.00
3068.78,190.00
3069.63,212.00
3070.47,190.00
3071.31,169.00
3072.14,148.00
3072.98,223.00
3073.82,159.00
3074.66,138.00
3075.49,223.00
3076.33,222.00
3077.17,201.00
3078.00,127.00
3078.83,191.00
3079.67,191.00
3080.50,148.00
3081.33,158.00
3082.17,222.00
3083.00,180.00
3083.83,158.00
3084.66,149.00
3085.49,127.00
3086.32,169.00
3087.15,191.00
3087.97,201.00
3088.80,191.00
3089.63,138.00
3090.46,95.00
3091.28,148.00
3092.11,190.00
3092.93,148.00
3093.75,159.00
3094.58,202.00
3095.40,170.00
3096.22,106.00
3097.05,148.00
3097.87,149.00
3098.69,117.00
3099.51,127.00
3100.33,127.00
3101.15,169.00
3101.96,191.00
3102.78,117.00
3103.60,137.00
3104.42,148.00
3105.23,148.00
3106.05,138.00
3106.86,158.00
3107.68,169.00
3108.49,180.00
3109.30,117.00
3110.12,116.00
3110.93,222.00
3111.74,201.00
3112.55,148.00
3113.36,138.00
3114.17,127.00
3114.98,137.00
3115.79,190.00
3116.60,180.00
3117.40,191.00
3118.21,212.00
3119.02,169.00
3119.82,169.00
3120.63,138.00
3121.43,117.00
3122.24,127.00
3123.04,127.00
3123.84,127.00
3124.65,127.00
3125.45,127.00
3126.25,95.00
3127.05,105.00
3127.85,127.00
3128.65,148.00
3129.45,169.00
3130.25,180.00
3131.05,159.00
3131.84,95.00
3132.64,96.00
3133.44,106.00
3134.23,117.00
3135.03,127.00
3135.82,106.00
3136.62,96.00
3137.41,169.00
3138.20,169.00
3139.00,96.00
3139.79,106.00
3140.58,96.00
3141.37,105.00
3142.16,148.00
3142.95,159.00
3143.74,148.00
3144.53,96.00
3145.32,127.00
3146.10,137.00
3146.89,148.00
3147.68,106.00
3148.46,64.00
3149.25,74.00
3150.03,85.00
3150.82,74.00
3151.60,32.00
3152.38,21.00
3153.17,105.00
3153.95,106.00
3154.73,96.00
3155.51,85.00
3156.29,106.00
3157.07,85.00
3157.85,127.00
3158.63,148.00
3159.41,116.00
3160.18,116.00
3160.96,95.00
3161.74,138.00
3162.51,159.00
3163.29,137.00
3164.06,127.00
3164.84,96.00
3165.61,95.00
3166.38,127.00
3167.16,138.00
3167.93,148.00
3168.70,127.00
3169.47,74.00
3170.24,95.00
3171.01,106.00
3171.78,96.00
3172.55,106.00
3173.32,53.00
3174.09,74.00
3174.85,127.00
3175.62,84.00
3176.39,85.00
3177.15,64.00
3177.92,31.00
3178.68,106.00
3179.45,191.00
3180.21,116.00
3180.97,106.00
3181.73,148.00
3182.50,64.00
3183.26,85.00
3184.02,74.00
3184.78,84.00
3185.54,127.00
3186.30,106.00
3187.05,117.00
3187.81,127.00
3188.57,95.00
3189.33,32.00
3190.08,53.00
3190.84,64.00
3191.59,95.00
3192.35,105.00
3193.10,42.00
3193.86,64.00
3194.61,84.00
3195.36,64.00
3196.12,127.00
3196.87,106.00
3197.62,105.00
3198.37,85.00
3199.12,117.00
3199.87,106.00
3200.62,95.00
3201.36,85.00
3202.11,85.00
3202.86,74.00
3203.61,43.00
3204.35,21.00
3205.10,85.00
3205.84,85.00
3206.59,43.00
3207.33,85.00
3208.08,127.00
3208.82,116.00
3209.56,84.00
3210.30,63.00
3211.05,43.00
3211.79,95.00
3212.53,84.00
3213.27,117.00
3214.01,148.00
3214.75,127.00
3215.48,74.00
3216.22,85.00
3216.96,64.00
3217.69,42.00
3218.43,74.00
3219.17,85.00
3219.90,85.00
3220.64,74.00
3221.37,42.00
3222.10,74.00
3222.84,32.00
3223.57,10.00
3224.30,32.00
3225.03,127.00
3225.76,106.00
3226.49,85.00
3227.22,116.00
3227.95,127.00
3228.68,84.00
3229.41,85.00
3230.14,127.00
3230.87,148.00
3231.59,117.00
3232.32,127.00
3233.04,106.00
3233.77,85.00
3234.49,74.00
3235.22,85.00
3235.94,106.00
3236.66,127.00
3237.39,84.00
3238.11,85.00
3238.83,95.00
3239.55,85.00
3240.27,43.00
3240.99,74.00
3241.71,74.00
3242.43,106.00
3243.15,117.00
3243.87,64.00
3244.58,42.00
3245.30,31.00
3246.02,85.00
3246.73,117.00
3247.45,0.00
3248.16,-21.00
3248.88,53.00
3249.59,138.00
3250.30,137.00
3251.01,148.00
3251.73,85.00
3252.44,64.00
3253.15,63.00
3253.86,84.00
3254.57,74.00
3255.28,106.00
3255.99,74.00
3256.70,64.00
3257.41,21.00
3258.11,32.00
3258.82,64.00
3259.53,42.00
3260.23,22.00
3260.94,42.00
3261.64,64.00
3262.35,84.00
3263.05,53.00
3263.76,74.00
3264.46,21.00
3265.16,42.00
3265.86,53.00
3266.56,53.00
3267.26,43.00
3267.97,42.00
3268.67,21.00
3269.36,22.00
3270.06,32.00
3270.76,32.00
3271.46,52.00
3272.16,106.00
3272.85,0.00
