RamanShift,Intensity
180.91,209.00
183.74,243.00
186.56,360.00
189.39,381.00
192.21,476.00
195.03,635.00
197.84,731.00
200.66,953.00
203.47,1196.00
206.28,1546.00
209.09,1790.00
211.89,1938.00
214.70,2033.00
217.50,2107.00
220.30,2234.00
223.10,2383.00
225.89,2488.00
228.69,2531.00
231.48,2509.00
234.27,2499.00
237.05,2584.00
239.84,2467.00
242.62,2435.00
245.40,2467.00
248.18,2435.00
250.96,2351.00
253.73,2277.00
256.51,2202.00
259.28,2087.00
262.05,2075.00
264.81,2044.00
267.58,1991.00
270.34,1864.00
273.10,1959.00
275.86,1980.00
278.61,1969.00
281.37,1948.00
284.12,1937.00
286.87,1938.00
289.62,1906.00
292.36,1853.00
295.11,1842.00
297.85,1790.00
300.59,1875.00
303.33,1928.00
306.06,1917.00
308.80,1895.00
311.53,1874.00
314.26,1790.00
316.99,1779.00
319.71,1896.00
322.44,1917.00
325.16,1853.00
327.88,1790.00
330.59,1800.00
333.31,1832.00
336.02,1853.00
338.73,1821.00
341.44,1864.00
344.15,1821.00
346.86,1811.00
349.56,1842.00
352.26,1758.00
354.96,1694.00
357.66,1768.00
360.35,1758.00
363.05,1801.00
365.74,1768.00
368.43,1800.00
371.12,1874.00
373.80,1927.00
376.48,1853.00
379.17,1779.00
381.85,1832.00
384.52,1843.00
387.20,1832.00
389.87,1832.00
392.54,1832.00
395.21,1843.00
397.88,1885.00
400.55,1906.00
403.21,1853.00
405.87,1896.00
408.53,1874.00
411.19,1832.00
413.84,1810.00
416.50,1874.00
419.15,1917.00
421.80,1938.00
424.45,1948.00
427.10,1810.00
429.74,1811.00
432.38,1885.00
435.02,1885.00
437.66,1853.00
440.30,1864.00
442.93,1864.00
445.56,1832.00
448.19,1832.00
450.82,1779.00
453.45,1832.00
456.07,1917.00
458.70,1969.00
461.32,1906.00
463.94,1874.00
466.55,1864.00
469.17,1917.00
471.78,1885.00
474.39,1832.00
477.00,1811.00
479.61,1822.00
482.22,1789.00
484.82,1885.00
487.42,1948.00
490.02,1885.00
492.62,1800.00
495.21,1779.00
497.81,1726.00
500.40,1779.00
502.99,1832.00
505.58,1832.00
508.17,1832.00
510.75,1821.00
513.33,1864.00
515.91,1874.00
518.49,1779.00
521.07,1757.00
523.65,1747.00
526.22,1737.00
528.79,1747.00
531.36,1800.00
533.93,1769.00
536.49,1768.00
539.06,1832.00
541.62,1800.00
544.18,1779.00
546.74,1758.00
549.30,1790.00
551.85,1769.00
554.40,1727.00
556.95,1779.00
559.50,1747.00
562.05,1695.00
564.59,1789.00
567.14,1800.00
569.68,1801.00
572.22,1811.00
574.76,1801.00
577.29,1748.00
579.83,1800.00
582.36,1822.00
584.89,1716.00
587.42,1695.00
589.95,1694.00
592.47,1715.00
594.99,1737.00
597.52,1747.00
600.04,1779.00
602.55,1758.00
605.07,1737.00
607.58,1705.00
610.09,1726.00
612.60,1716.00
615.11,1716.00
617.62,1758.00
620.12,1716.00
622.63,1673.00
625.13,1631.00
627.63,1620.00
630.13,1631.00
632.62,1588.00
635.12,1588.00
637.61,1620.00
640.10,1673.00
642.59,1652.00
645.07,1652.00
647.56,1652.00
650.04,1705.00
652.52,1673.00
655.00,1630.00
657.48,1630.00
659.96,1557.00
662.43,1578.00
664.90,1578.00
667.37,1599.00
669.84,1652.00
672.31,1694.00
674.78,1705.00
677.24,1673.00
679.70,1673.00
682.16,1588.00
684.62,1588.00
687.08,1536.00
689.53,1546.00
691.98,1514.00
694.43,1567.00
696.88,1557.00
699.33,1483.00
701.78,1546.00
704.22,1578.00
706.66,1546.00
709.10,1546.00
711.54,1546.00
713.98,1525.00
716.42,1557.00
718.85,1514.00
721.28,1546.00
723.71,1652.00
726.14,1684.00
728.57,1662.00
730.99,1694.00
733.41,1705.00
735.83,1683.00
738.25,1631.00
740.67,1546.00
743.09,1557.00
745.50,1577.00
747.91,1514.00
750.33,1472.00
752.73,1450.00
755.14,1419.00
757.55,1525.00
759.95,1440.00
762.35,1440.00
764.75,1440.00
767.15,1514.00
769.55,1567.00
771.95,1440.00
774.34,1482.00
776.73,1504.00
779.12,1461.00
781.51,1461.00
783.90,1376.00
786.28,1355.00
788.67,1419.00
791.05,1430.00
793.43,1503.00
795.80,1419.00
798.18,1366.00
800.56,1377.00
802.93,1440.00
805.30,1462.00
807.67,1398.00
810.04,1355.00
812.40,1408.00
814.77,1429.00
817.13,1366.00
819.49,1356.00
821.85,1419.00
824.21,1387.00
826.57,1334.00
828.92,1324.00
831.27,1292.00
833.63,1291.00
835.98,1313.00
838.32,1355.00
840.67,1313.00
843.01,1302.00
845.36,1377.00
847.70,1366.00
850.04,1366.00
852.37,1377.00
854.71,1313.00
857.05,1323.00
859.38,1313.00
861.71,1323.00
864.04,1271.00
866.37,1303.00
868.69,1313.00
871.02,1271.00
873.34,1238.00
875.66,1207.00
877.98,1249.00
880.30,1282.00
882.62,1260.00
884.93,1249.00
887.24,1291.00
889.55,1249.00
891.86,1207.00
894.17,1281.00
896.48,1250.00
898.78,1271.00
901.09,1271.00
903.39,1249.00
905.69,1271.00
907.99,1228.00
910.28,1197.00
912.58,1238.00
914.87,1260.00
917.16,1175.00
919.45,1175.00
921.74,1197.00
924.03,1228.00
926.31,1229.00
928.60,1143.00
930.88,1112.00
933.16,1196.00
935.44,1197.00
937.72,1133.00
939.99,1154.00
942.26,1165.00
944.54,1143.00
946.81,1123.00
949.08,1197.00
951.34,1207.00
953.61,1229.00
955.87,1228.00
958.14,1207.00
960.40,1164.00
962.66,1186.00
964.92,1165.00
967.17,1154.00
969.43,1133.00
971.68,1144.00
973.93,1164.00
976.18,1112.00
978.43,1143.00
980.68,1154.00
982.92,1176.00
985.17,1207.00
987.41,1122.00
989.65,1080.00
991.89,1101.00
994.12,1091.00
996.36,1102.00
998.59,1122.00
1000.83,1112.00
1003.06,1112.00
1005.29,1112.00
1007.51,1175.00
1009.74,1123.00
1011.97,1059.00
1014.19,1058.00
1016.41,1069.00
1018.63,1069.00
1020.85,1101.00
1023.07,1070.00
1025.28,1070.00
1027.49,1133.00
1029.71,1112.00
1031.92,1070.00
1034.13,1059.00
1036.33,1069.00
1038.54,1091.00
1040.74,1090.00
1042.95,1069.00
1045.15,1133.00
1047.35,1101.00
1049.55,1069.00
1051.74,1080.00
1053.94,1069.00
1056.13,1091.00
1058.32,1080.00
1060.51,1059.00
1062.70,1059.00
1064.89,1017.00
1067.08,974.00
1069.26,1016.00
1071.44,1059.00
1073.63,1070.00
1075.81,1122.00
1077.98,1101.00
1080.16,1069.00
1082.34,1048.00
1084.51,1048.00
1086.68,1017.00
1088.85,1027.00
1091.02,1027.00
1093.19,985.00
1095.35,1038.00
1097.52,1101.00
1099.68,1016.00
1101.84,984.00
1104.00,953.00
1106.16,953.00
1108.32,996.00
1110.48,1006.00
1112.63,1006.00
1114.78,974.00
1116.93,963.00
1119.08,995.00
1121.23,1049.00
1123.38,1038.00
1125.52,1059.00
1127.67,995.00
1129.81,985.00
1131.95,953.00
1134.09,921.00
1136.22,932.00
1138.36,932.00
1140.50,943.00
1142.63,942.00
1144.76,953.00
1146.89,974.00
1149.02,964.00
1151.15,953.00
1153.27,932.00
1155.40,932.00
1157.52,995.00
1159.64,1048.00
1161.76,1038.00
1163.88,974.00
1165.99,964.00
1168.11,1006.00
1170.22,984.00
1172.34,942.00
1174.45,964.00
1176.56,1017.00
1178.66,932.00
1180.77,922.00
1182.88,953.00
1184.98,985.00
1187.08,900.00
1189.18,858.00
1191.28,911.00
1193.38,889.00
1195.47,868.00
1197.57,931.00
1199.66,911.00
1201.75,932.00
1203.85,932.00
1205.93,890.00
1208.02,921.00
1210.11,922.00
1212.19,890.00
1214.28,911.00
1216.36,911.00
1218.44,931.00
1220.52,900.00
1222.59,826.00
1224.67,900.00
1226.74,932.00
1228.82,868.00
1230.89,889.00
1232.96,911.00
1235.03,911.00
1237.10,953.00
1239.16,985.00
1241.23,922.00
1243.29,942.00
1245.35,910.00
1247.41,868.00
1249.47,879.00
1251.53,879.00
1253.58,868.00
1255.64,910.00
1257.69,921.00
1259.74,868.00
1261.79,900.00
1263.84,900.00
1265.89,911.00
1267.93,868.00
1269.98,868.00
1272.02,847.00
1274.06,836.00
1276.10,848.00
1278.14,890.00
1280.18,879.00
1282.22,890.00
1284.25,890.00
1286.28,868.00
1288.32,858.00
1290.35,879.00
1292.38,858.00
1294.40,858.00
1296.43,837.00
1298.46,858.00
1300.48,858.00
1302.50,837.00
1304.52,784.00
1306.54,794.00
1308.56,900.00
1310.58,879.00
1312.59,847.00
1314.60,805.00
1316.62,868.00
1318.63,879.00
1320.64,826.00
1322.65,858.00
1324.65,921.00
1326.66,931.00
1328.66,900.00
1330.66,889.00
1332.67,943.00
1334.67,953.00
1336.66,890.00
1338.66,889.00
1340.66,900.00
1342.65,890.00
1344.65,848.00
1346.64,868.00
1348.63,826.00
1350.62,826.00
1352.60,847.00
1354.59,868.00
1356.57,847.00
1358.56,847.00
1360.54,847.00
1362.52,847.00
1364.50,836.00
1366.48,805.00
1368.46,826.00
1370.43,847.00
1372.41,826.00
1374.38,815.00
1376.35,868.00
1378.32,869.00
1380.29,848.00
1382.25,815.00
1384.22,815.00
1386.18,826.00
1388.15,773.00
1390.11,773.00
1392.07,805.00
1394.03,784.00
1395.99,783.00
1397.94,815.00
1399.90,826.00
1401.85,836.00
1403.80,816.00
1405.76,794.00
1407.71,815.00
1409.65,805.00
1411.60,751.00
1413.55,784.00
1415.49,763.00
1417.44,741.00
1419.38,773.00
1421.32,815.00
1423.26,752.00
1425.19,709.00
1427.13,752.00
1429.07,752.00
1431.00,784.00
1432.93,720.00
1434.86,784.00
1436.79,837.00
1438.72,783.00
1440.65,741.00
1442.57,741.00
1444.50,731.00
1446.42,730.00
1448.34,742.00
1450.26,720.00
1452.18,710.00
1454.10,731.00
1456.02,720.00
1457.93,752.00
1459.85,784.00
1461.76,784.00
1463.67,784.00
1465.58,762.00
1467.49,678.00
1469.40,741.00
1471.31,783.00
1473.21,773.00
1475.11,741.00
1477.02,720.00
1478.92,741.00
1480.82,751.00
1482.72,720.00
1484.61,677.00
1486.51,678.00
1488.40,699.00
1490.30,730.00
1492.19,668.00
1494.08,678.00
1495.97,667.00
1497.86,710.00
1499.74,678.00
1501.63,668.00
1503.51,699.00
1505.40,657.00
1507.28,646.00
1509.16,657.00
1511.04,656.00
1512.92,678.00
1514.79,667.00
1516.67,625.00
1518.54,657.00
1520.42,624.00
1522.29,593.00
1524.16,657.00
1526.03,667.00
1527.89,699.00
1529.76,688.00
1531.63,709.00
1533.49,699.00
1535.35,678.00
1537.21,689.00
1539.07,656.00
1540.93,699.00
1542.79,710.00
1544.65,678.00
1546.50,667.00
1548.36,646.00
1550.21,689.00
1552.06,625.00
1553.91,646.00
1555.76,720.00
1557.61,731.00
1559.45,688.00
1561.30,646.00
1563.14,635.00
1564.98,625.00
1566.82,604.00
1568.67,635.00
1570.50,625.00
1572.34,635.00
1574.18,636.00
1576.01,625.00
1577.85,614.00
1579.68,678.00
1581.51,688.00
1583.34,625.00
1585.17,593.00
1587.00,614.00
1588.82,614.00
1590.65,604.00
1592.47,604.00
1594.30,604.00
1596.12,604.00
1597.94,604.00
1599.76,604.00
1601.57,635.00
1603.39,678.00
1605.21,656.00
1607.02,604.00
1608.83,614.00
1610.64,572.00
1612.45,582.00
1614.26,604.00
1616.07,615.00
1617.88,593.00
1619.68,604.00
1621.49,593.00
1623.29,551.00
1625.09,571.00
1626.89,572.00
1628.69,572.00
1630.49,540.00
1632.29,551.00
1634.08,593.00
1635.88,498.00
1637.67,530.00
1639.46,572.00
1641.25,540.00
1643.04,530.00
1644.83,519.00
1646.62,509.00
1648.41,561.00
1650.19,508.00
1651.97,488.00
1653.76,540.00
1655.54,582.00
1657.32,509.00
1659.10,487.00
1660.88,519.00
1662.65,551.00
1664.43,540.00
1666.20,551.00
1667.97,550.00
1669.75,540.00
1671.52,509.00
1673.29,498.00
1675.05,519.00
1676.82,530.00
1678.59,509.00
1680.35,498.00
1682.11,466.00
1683.88,466.00
1685.64,498.00
1687.40,455.00
1689.16,423.00
1690.91,392.00
1692.67,445.00
1694.42,456.00
1696.18,477.00
1697.93,424.00
1699.68,402.00
1701.43,456.00
1703.18,455.00
1704.93,455.00
1706.68,444.00
1708.42,424.00
1710.17,466.00
1711.91,487.00
1713.65,498.00
1715.39,477.00
1717.13,465.00
1718.87,477.00
1720.61,456.00
1722.35,445.00
1724.08,455.00
1725.81,423.00
1727.55,435.00
1729.28,445.00
1731.01,413.00
1732.74,424.00
1734.47,445.00
1736.19,445.00
1737.92,466.00
1739.64,423.00
1741.37,455.00
1743.09,445.00
1744.81,424.00
1746.53,423.00
1748.25,424.00
1749.97,403.00
1751.68,434.00
1753.40,423.00
1755.11,465.00
1756.83,497.00
1758.54,413.00
1760.25,392.00
1761.96,392.00
1763.67,424.00
1765.38,444.00
1767.08,466.00
1768.79,466.00
1770.49,434.00
1772.19,476.00
1773.90,497.00
1775.60,445.00
1777.30,424.00
1778.99,424.00
1780.69,413.00
1782.39,413.00
1784.08,402.00
1785.78,413.00
1787.47,423.00
1789.16,424.00
1790.85,424.00
1792.54,413.00
1794.23,403.00
1795.91,402.00
1797.60,424.00
1799.28,423.00
1800.97,435.00
1802.65,434.00
1804.33,402.00
1806.01,413.00
1807.69,413.00
1809.37,381.00
1811.05,445.00
1812.72,434.00
1814.40,381.00
1816.07,381.00
1817.74,402.00
1819.41,371.00
1821.08,349.00
1822.75,349.00
1824.42,360.00
1826.09,360.00
1827.75,413.00
1829.42,424.00
1831.08,371.00
1832.74,360.00
1834.40,360.00
1836.06,350.00
1837.72,350.00
1839.38,350.00
1841.04,318.00
1842.69,307.00
1844.35,339.00
1846.00,381.00
1847.65,349.00
1849.30,360.00
1850.95,381.00
1852.60,381.00
1854.25,382.00
1855.90,370.00
1857.54,339.00
1859.19,360.00
1860.83,382.00
1862.47,434.00
1864.12,371.00
1865.76,338.00
1867.40,338.00
1869.03,349.00
1870.67,392.00
1872.31,402.00
1873.94,370.00
1875.57,360.00
1877.21,339.00
1878.84,339.00
1880.47,338.00
1882.10,339.00
1883.73,360.00
1885.35,329.00
1886.98,328.00
1888.61,307.00
1890.23,307.00
1891.85,339.00
1893.47,339.00
1895.09,349.00
1896.71,339.00
1898.33,318.00
1899.95,328.00
1901.57,360.00
1903.18,349.00
1904.80,296.00
1906.41,307.00
1908.02,339.00
1909.63,403.00
1911.24,413.00
1912.85,339.00
1914.46,318.00
1916.07,297.00
1917.67,307.00
1919.28,317.00
1920.88,328.00
1922.48,297.00
1924.08,318.00
1925.68,307.00
1927.28,339.00
1928.88,349.00
1930.48,296.00
1932.07,275.00
1933.67,296.00
1935.26,329.00
1936.86,339.00
1938.45,349.00
1940.04,339.00
1941.63,349.00
1943.22,339.00
1944.80,339.00
1946.39,339.00
1947.98,328.00
1949.56,328.00
1951.14,339.00
1952.73,307.00
1954.31,254.00
1955.89,265.00
1957.47,328.00
1959.05,318.00
1960.62,318.00
1962.20,296.00
1963.77,339.00
1965.35,297.00
1966.92,318.00
1968.49,328.00
1970.06,286.00
1971.63,297.00
1973.20,296.00
1974.77,318.00
1976.34,328.00
1977.90,318.00
1979.47,297.00
1981.03,339.00
1982.59,296.00
1984.15,307.00
1985.71,286.00
1987.27,297.00
1988.83,285.00
1990.39,265.00
1991.94,222.00
1993.50,254.00
1995.05,286.00
1996.61,276.00
1998.16,254.00
1999.71,264.00
2001.26,285.00
2002.81,297.00
2004.36,339.00
2005.91,317.00
2007.45,297.00
2009.00,276.00
2010.54,233.00
2012.08,276.00
2013.62,286.00
2015.17,276.00
2016.71,285.00
2018.24,265.00
2019.78,265.00
2021.32,265.00
2022.85,255.00
2024.39,254.00
2025.92,254.00
2027.46,265.00
2028.99,275.00
2030.52,255.00
2032.05,264.00
2033.58,275.00
2035.10,307.00
2036.63,307.00
2038.16,307.00
2039.68,349.00
2041.21,328.00
2042.73,286.00
2044.25,275.00
2045.77,254.00
2047.29,243.00
2048.81,275.00
2050.33,254.00
2051.84,212.00
2053.36,244.00
2054.87,254.00
2056.39,244.00
2057.90,276.00
2059.41,286.00
2060.92,254.00
2062.43,296.00
2063.94,286.00
2065.45,286.00
2066.95,276.00
2068.46,255.00
2069.96,233.00
2071.47,254.00
2072.97,297.00
2074.47,328.00
2075.97,286.00
2077.47,254.00
2078.97,212.00
2080.47,223.00
2081.96,254.00
2083.46,233.00
2084.95,190.00
2086.45,222.00
2087.94,276.00
2089.43,286.00
2090.92,254.00
2092.41,212.00
2093.90,254.00
2095.39,212.00
2096.88,191.00
2098.36,233.00
2099.85,233.00
2101.33,233.00
2102.81,264.00
2104.30,244.00
2105.78,233.00
2107.26,244.00
2108.74,244.00
2110.21,233.00
2111.69,255.00
2113.17,201.00
2114.64,222.00
2116.12,233.00
2117.59,254.00
2119.06,244.00
2120.53,212.00
2122.00,222.00
2123.47,243.00
2124.94,254.00
2126.41,254.00
2127.87,254.00
2129.34,243.00
2130.80,190.00
2132.27,212.00
2133.73,223.00
2135.19,254.00
2136.65,254.00
2138.11,254.00
2139.57,212.00
2141.03,191.00
2142.48,202.00
2143.94,233.00
2145.39,265.00
2146.85,255.00
2148.30,212.00
2149.75,223.00
2151.20,212.00
2152.65,233.00
2154.10,254.00
2155.55,244.00
2157.00,212.00
2158.44,190.00
2159.89,212.00
2161.33,212.00
2162.78,191.00
2164.22,170.00
2165.66,169.00
2167.10,180.00
2168.54,191.00
2169.98,212.00
2171.42,191.00
2172.85,191.00
2174.29,159.00
2175.72,201.00
2177.16,233.00
2178.59,222.00
2180.02,244.00
2181.45,212.00
2182.88,191.00
2184.31,212.00
2185.74,169.00
2187.17,169.00
2188.59,127.00
2190.02,138.00
2191.44,191.00
2192.87,180.00
2194.29,191.00
2195.71,222.00
2197.13,190.00
2198.55,191.00
2199.97,212.00
2201.39,191.00
2202.81,201.00
2204.22,212.00
2205.64,201.00
2207.05,211.00
2208.46,222.00
2209.88,212.00
2211.29,190.00
2212.70,191.00
2214.11,212.00
2215.52,180.00
2216.92,191.00
2218.33,202.00
2219.74,170.00
2221.14,223.00
2222.54,233.00
2223.95,233.00
2225.35,202.00
2226.75,169.00
2228.15,148.00
2229.55,148.00
2230.95,170.00
2232.35,212.00
2233.74,190.00
2235.14,212.00
2236.53,190.00
2237.93,190.00
2239.32,180.00
2240.71,191.00
2242.10,169.00
2243.49,190.00
2244.88,191.00
2246.27,169.00
2247.66,169.00
2249.04,180.00
2250.43,169.00
2251.81,158.00
2253.20,149.00
2254.58,180.00
2255.96,170.00
2257.34,169.00
2258.72,191.00
2260.10,190.00
2261.48,169.00
2262.86,170.00
2264.23,170.00
2265.61,201.00
2266.98,190.00
2268.36,201.00
2269.73,169.00
2271.10,106.00
2272.47,116.00
2273.84,149.00
2275.21,170.00
2276.58,180.00
2277.95,212.00
2279.31,202.00
2280.68,180.00
2282.05,169.00
2283.41,191.00
2284.77,170.00
2286.13,180.00
2287.50,169.00
2288.86,191.00
2290.22,180.00
2291.57,170.00
2292.93,169.00
2294.29,159.00
2295.64,191.00
2297.00,169.00
2298.35,191.00
2299.71,212.00
2301.06,191.00
2302.41,191.00
2303.76,169.00
2305.11,169.00
2306.46,170.00
2307.81,191.00
2309.15,201.00
2310.50,211.00
2311.84,169.00
2313.19,170.00
2314.53,170.00
2315.87,105.00
2317.22,106.00
2318.56,127.00
2319.90,180.00
2321.24,191.00
2322.57,170.00
2323.91,190.00
2325.25,169.00
2326.58,116.00
2327.92,169.00
2329.25,169.00
2330.58,180.00
2331.91,106.00
2333.25,148.00
2334.58,190.00
2335.90,170.00
2337.23,148.00
2338.56,149.00
2339.89,127.00
2341.21,170.00
2342.54,170.00
2343.86,180.00
2345.19,169.00
2346.51,148.00
2347.83,170.00
2349.15,169.00
2350.47,169.00
2351.79,202.00
2353.11,190.00
2354.42,169.00
2355.74,158.00
2357.06,127.00
2358.37,137.00
2359.68,127.00
2361.00,138.00
2362.31,127.00
2363.62,138.00
2364.93,127.00
2366.24,117.00
2367.55,127.00
2368.86,138.00
2370.16,137.00
2371.47,127.00
2372.77,148.00
2374.08,149.00
2375.38,106.00
2376.68,106.00
2377.98,212.00
2379.29,191.00
2380.59,127.00
2381.88,127.00
2383.18,148.00
2384.48,116.00
2385.78,95.00
2387.07,106.00
2388.37,169.00
2389.66,149.00
2390.95,138.00
2392.25,148.00
2393.54,148.00
2394.83,159.00
2396.12,148.00
2397.41,158.00
2398.70,138.00
2399.98,106.00
2401.27,95.00
2402.55,106.00
2403.84,149.00
2405.12,180.00
2406.41,191.00
2407.69,170.00
2408.97,148.00
2410.25,191.00
2411.53,148.00
2412.81,138.00
2414.09,127.00
2415.36,191.00
2416.64,201.00
2417.91,127.00
2419.19,148.00
2420.46,149.00
2421.74,148.00
2423.01,127.00
2424.28,138.00
2425.55,137.00
2426.82,106.00
2428.09,95.00
2429.36,127.00
2430.62,127.00
2431.89,180.00
2433.15,148.00
2434.42,127.00
2435.68,116.00
2436.94,95.00
2438.21,106.00
2439.47,116.00
2440.73,117.00
2441.99,137.00
2443.25,74.00
2444.51,106.00
2445.76,127.00
2447.02,117.00
2448.27,127.00
2449.53,148.00
2450.78,180.00
2452.03,148.00
2453.29,105.00
2454.54,127.00
2455.79,106.00
2457.04,95.00
2458.29,63.00
2459.54,105.00
2460.78,137.00
2462.03,127.00
2463.27,105.00
2464.52,148.00
2465.76,117.00
2467.01,116.00
2468.25,106.00
2469.49,96.00
2470.73,75.00
2471.97,43.00
2473.21,106.00
2474.45,116.00
2475.69,127.00
2476.92,106.00
2478.16,85.00
2479.39,106.00
2480.63,116.00
2481.86,116.00
2483.09,106.00
2484.32,106.00
2485.56,116.00
2486.79,106.00
2488.02,127.00
2489.24,127.00
2490.47,84.00
2491.70,64.00
2492.92,149.00
2494.15,138.00
2495.37,116.00
2496.60,127.00
2497.82,116.00
2499.04,106.00
2500.26,127.00
2501.48,106.00
2502.70,53.00
2503.92,85.00
2505.14,148.00
2506.36,106.00
2507.58,85.00
2508.79,96.00
2510.01,128.00
2511.22,117.00
2512.43,127.00
2513.64,106.00
2514.86,85.00
2516.07,85.00
2517.28,127.00
2518.49,127.00
2519.70,85.00
2520.90,84.00
2522.11,106.00
2523.32,127.00
2524.52,105.00
2525.73,127.00
2526.93,127.00
2528.13,127.00
2529.33,138.00
2530.54,159.00
2531.74,127.00
2532.94,85.00
2534.14,95.00
2535.33,95.00
2536.53,106.00
2537.73,84.00
2538.92,106.00
2540.12,84.00
2541.31,106.00
2542.51,106.00
2543.70,85.00
2544.89,63.00
2546.08,117.00
2547.27,148.00
2548.46,127.00
2549.65,63.00
2550.84,64.00
2552.03,95.00
2553.21,127.00
2554.40,116.00
2555.58,127.00
2556.77,106.00
2557.95,127.00
2559.13,138.00
2560.31,106.00
2561.50,127.00
2562.68,106.00
2563.85,105.00
2565.03,117.00
2566.21,127.00
2567.39,106.00
2568.56,106.00
2569.74,148.00
2570.91,148.00
2572.09,148.00
2573.26,106.00
2574.43,42.00
2575.61,42.00
2576.78,64.00
2577.95,64.00
2579.12,117.00
2580.29,148.00
2581.45,95.00
2582.62,84.00
2583.79,127.00
2584.95,127.00
2586.12,127.00
2587.28,106.00
2588.44,127.00
2589.61,105.00
2590.77,148.00
2591.93,116.00
2593.09,138.00
2594.25,74.00
2595.41,63.00
2596.56,85.00
2597.72,74.00
2598.88,74.00
2600.03,53.00
2601.19,32.00
2602.34,85.00
2603.50,42.00
2604.65,53.00
2605.80,106.00
2606.95,95.00
2608.10,64.00
2609.25,74.00
2610.40,117.00
2611.55,127.00
2612.70,127.00
2613.84,105.00
2614.99,85.00
2616.13,63.00
2617.28,32.00
2618.42,63.00
2619.56,85.00
2620.71,106.00
2621.85,85.00
2622.99,85.00
2624.13,95.00
2625.27,137.00
2626.40,74.00
2627.54,53.00
2628.68,43.00
2629.81,42.00
2630.95,85.00
2632.08,85.00
2633.22,74.00
2634.35,74.00
2635.48,84.00
2636.61,63.00
2637.74,106.00
2638.87,117.00
2640.00,106.00
2641.13,95.00
2642.26,85.00
2643.39,106.00
2644.51,105.00
2645.64,116.00
2646.76,106.00
2647.89,63.00
2649.01,85.00
2650.13,85.00
2651.25,106.00
2652.38,85.00
2653.50,85.00
2654.62,85.00
2655.73,106.00
2656.85,85.00
2657.97,42.00
2659.09,21.00
2660.20,43.00
2661.32,74.00
2662.43,84.00
2663.55,106.00
2664.66,106.00
2665.77,148.00
2666.88,106.00
2667.99,117.00
2669.10,96.00
2670.21,42.00
2671.32,0.00
2672.43,21.00
2673.54,74.00
2674.64,85.00
2675.75,64.00
2676.85,127.00
2677.96,74.00
2679.06,64.00
2680.16,85.00
2681.26,43.00
2682.37,43.00
2683.47,138.00
2684.57,138.00
2685.66,64.00
2686.76,64.00
2687.86,116.00
2688.96,127.00
2690.05,137.00
2691.15,117.00
2692.24,64.00
2693.34,64.00
2694.43,85.00
2695.52,74.00
2696.62,84.00
2697.71,138.00
2698.80,117.00
2699.89,106.00
2700.98,74.00
2702.06,53.00
2703.15,32.00
2704.24,11.00
2705.32,63.00
2706.41,32.00
2707.49,43.00
2708.58,64.00
2709.66,84.00
2710.74,106.00
2711.83,53.00
2712.91,64.00
2713.99,85.00
2715.07,42.00
2716.15,52.00
2717.22,106.00
2718.30,106.00
2719.38,95.00
2720.45,74.00
2721.53,63.00
2722.60,74.00
2723.68,85.00
2724.75,85.00
2725.82,53.00
2726.89,21.00
2727.97,64.00
2729.04,63.00
2730.11,42.00
2731.17,21.00
2732.24,63.00
2733.31,127.00
2734.38,106.00
2735.44,85.00
2736.51,127.00
2737.57,106.00
2738.64,42.00
2739.70,10.00
2740.76,22.00
2741.82,53.00
2742.89,74.00
2743.95,32.00
2745.01,21.00
2746.07,42.00
2747.12,64.00
2748.18,106.00
2749.24,84.00
2750.29,42.00
2751.35,22.00
2752.40,43.00
2753.46,84.00
2754.51,105.00
2755.57,74.00
2756.62,53.00
2757.67,85.00
2758.72,85.00
2759.77,63.00
2760.82,42.00
2761.87,63.00
2762.91,84.00
2763.96,85.00
2765.01,43.00
2766.05,64.00
2767.10,74.00
2768.14,63.00
2769.19,96.00
2770.23,74.00
2771.27,74.00
2772.31,117.00
2773.35,74.00
2774.40,96.00
2775.43,96.00
2776.47,43.00
2777.51,42.00
2778.55,106.00
2779.59,85.00
2780.62,21.00
2781.66,42.00
2782.69,63.00
2783.73,63.00
2784.76,85.00
2785.79,105.00
2786.82,63.00
2787.85,42.00
2788.89,21.00
2789.92,21.00
2790.94,32.00
2791.97,42.00
2793.00,42.00
2794.03,85.00
2795.05,63.00
2796.08,84.00
2797.11,42.00
2798.13,22.00
2799.15,43.00
2800.18,32.00
2801.20,21.00
2802.22,32.00
2803.24,64.00
2804.26,32.00
2805.28,64.00
2806.30,43.00
2807.32,53.00
2808.34,85.00
2809.35,74.00
2810.37,64.00
2811.39,64.00
2812.40,63.00
2813.41,95.00
2814.43,149.00
2815.44,95.00
2816.45,64.00
2817.46,43.00
2818.48,53.00
2819.49,64.00
2820.49,42.00
2821.50,85.00
2822.51,85.00
2823.52,43.00
2824.53,42.00
2825.53,42.00
2826.54,64.00
2827.54,31.00
2828.55,0.00
2829.55,21.00
2830.55,105.00
2831.55,85.00
2832.56,21.00
2833.56,53.00
2834.56,32.00
2835.56,22.00
2836.56,43.00
2837.55,32.00
2838.55,74.00
2839.55,43.00
2840.54,42.00
2841.54,32.00
2842.53,53.00
2843.53,32.00
2844.52,53.00
2845.51,31.00
2846.51,11.00
2847.50,53.00
2848.49,74.00
2849.48,42.00
2850.47,22.00
2851.46,53.00
2852.45,42.00
2853.43,42.00
2854.42,0.00
2855.41,21.00
2856.39,42.00
2857.38,85.00
2858.36,64.00
2859.34,63.00
2860.33,32.00
2861.31,43.00
2862.29,43.00
2863.27,0.00
2864.25,52.00
2865.23,21.00
2866.21,0.00
2867.19,21.00
2868.17,11.00
2869.14,22.00
2870.12,43.00
2871.09,106.00
2872.07,64.00
2873.04,32.00
2874.02,64.00
2874.99,85.00
2875.96,85.00
2876.93,63.00
2877.91,21.00
2878.88,11.00
2879.85,42.00
2880.82,42.00
2881.78,53.00
2882.75,64.00
2883.72,63.00
2884.69,85.00
2885.65,75.00
2886.62,64.00
2887.58,64.00
2888.55,105.00
2889.51,63.00
2890.47,53.00
2891.43,32.00
2892.39,-21.00
2893.36,10.00
2894.31,85.00
2895.27,106.00
2896.23,85.00
2897.19,74.00
2898.15,106.00
2899.11,75.00
2900.06,53.00
2901.02,74.00
2901.97,53.00
2902.93,31.00
2903.88,43.00
2904.83,63.00
2905.79,43.00
2906.74,21.00
2907.69,63.00
2908.64,32.00
2909.59,42.00
2910.54,63.00
2911.49,64.00
2912.43,64.00
2913.38,22.00
2914.33,11.00
2915.27,42.00
2916.22,11.00
2917.16,53.00
2918.11,85.00
2919.05,0.00
2919.99,0.00
2920.94,-21.00
2921.88,42.00
2922.82,43.00
2923.76,-11.00
2924.70,-21.00
2925.64,21.00
2926.58,53.00
2927.51,95.00
2928.45,22.00
2929.39,10.00
2930.32,53.00
2931.26,21.00
2932.19,43.00
2933.13,32.00
2934.06,32.00
2934.99,85.00
2935.92,32.00
2936.86,31.00
2937.79,43.00
2938.72,53.00
2939.65,43.00
2940.57,63.00
2941.50,43.00
2942.43,64.00
2943.36,95.00
2944.28,85.00
2945.21,63.00
2946.13,42.00
2947.06,32.00
2947.98,0.00
2948.91,53.00
2949.83,74.00
2950.75,-10.00
2951.67,-64.00
2952.59,11.00
2953.51,32.00
2954.43,53.00
2955.35,53.00
2956.27,43.00
2957.19,63.00
2958.10,64.00
2959.02,106.00
2959.94,32.00
2960.85,10.00
2961.77,21.00
2962.68,21.00
2963.59,42.00
2964.51,0.00
2965.42,0.00
2966.33,32.00
2967.24,42.00
2968.15,53.00
2969.06,43.00
2969.97,21.00
2970.88,32.00
2971.78,11.00
2972.69,21.00
2973.60,42.00
2974.50,-10.00
2975.41,11.00
2976.31,31.00
2977.22,11.00
2978.12,0.00
2979.02,21.00
2979.93,74.00
2980.83,42.00
2981.73,42.00
2982.63,42.00
2983.53,22.00
2984.43,63.00
2985.33,74.00
2986.22,21.00
2987.12,42.00
2988.02,-10.00
2988.91,0.00
2989.81,-21.00
2990.70,21.00
2991.60,21.00
2992.49,11.00
2993.38,10.00
2994.28,0.00
2995.17,64.00
2996.06,53.00
2996.95,0.00
2997.84,53.00
2998.73,53.00
2999.62,21.00
3000.51,11.00
3001.40,0.00
3002.28,-11.00
3003.17,84.00
3004.05,75.00
3004.94,42.00
3005.82,32.00
3006.71,32.00
3007.59,43.00
3008.47,-11.00
3009.36,42.00
3010.24,21.00
3011.12,21.00
3012.00,42.00
3012.88,63.00
3013.76,21.00
3014.64,21.00
3015.51,0.00
3016.39,21.00
3017.27,21.00
3018.14,31.00
3019.02,64.00
3019.89,32.00
3020.77,-10.00
3021.64,-10.00
3022.52,0.00
3023.39,42.00
3024.26,43.00
3025.13,10.00
3026.00,-11.00
3026.87,-21.00
3027.74,10.00
3028.61,32.00
3029.48,22.00
3030.35,0.00
3031.21,10.00
3032.08,22.00
3032.95,43.00
3033.81,-21.00
3034.68,21.00
3035.54,53.00
3036.40,53.00
3037.27,85.00
3038.13,32.00
3038.99,42.00
3039.85,-43.00
3040.71,-22.00
3041.57,10.00
3042.43,10.00
3043.29,0.00
3044.15,0.00
3045.01,0.00
3045.86,0.00
3046.72,21.00
3047.58,11.00
3048.43,63.00
3049.29,-21.00
3050.14,-21.00
3050.99,0.00
3051.85,43.00
3052.70,42.00
3053.55,64.00
3054.40,32.00
3055.25,21.00
3056.10,21.00
3056.95,-11.00
3057.80,-10.00
3058.65,-11.00
3059.50,21.00
3060.34,0.00
3061.19,-21.00
3062.04,10.00
3062.88,-11.00
3063.73,21.00
3064.57,21.00
3065.42,10.00
3066.26,21.00
3067.10,10.00
3067.94,0.00
3068.78,0.00
3069.63,21.00
3070.47,10.00
3071.31,0.00
3072.14,53.00
3072.98,74.00
3073.82,32.00
3074.66,42.00
3075.49,32.00
3076.33,84.00
3077.17,32.00
3078.00,42.00
3078.83,21.00
3079.67,0.00
3080.50,0.00
3081.33,21.00
3082.17,64.00
3083.00,22.00
3083.83,10.00
3084.66,42.00
3085.49,22.00
3086.32,11.00
3087.15,43.00
3087.97,-10.00
3088.80,0.00
3089.63,43.00
3090.46,21.00
3091.28,-11.00
3092.11,11.00
3092.93,53.00
3093.75,32.00
3094.58,21.00
3095.40,63.00
3096.22,-21.00
3097.05,-32.00
3097.87,21.00
3098.69,43.00
3099.51,10.00
3100.33,52.00
3101.15,42.00
3101.96,21.00
3102.78,21.00
3103.60,22.00
3104.42,21.00
3105.23,22.00
3106.05,42.00
3106.86,10.00
3107.68,0.00
3108.49,0.00
3109.30,21.00
3110.12,43.00
3110.93,32.00
3111.74,42.00
3112.55,53.00
3113.36,53.00
3114.17,21.00
3114.98,0.00
3115.79,10.00
3116.60,53.00
3117.40,10.00
3118.21,21.00
3119.02,42.00
3119.82,11.00
3120.63,-11.00
3121.43,-11.00
3122.24,-31.00
3123.04,-63.00
3123.84,10.00
3124.65,32.00
3125.45,42.00
3126.25,53.00
3127.05,32.00
3127.85,42.00
3128.65,42.00
3129.45,0.00
3130.25,-10.00
3131.05,21.00
3131.84,0.00
3132.64,-42.00
3133.44,11.00
3134.23,21.00
3135.03,21.00
3135.82,11.00
3136.62,53.00
3137.41,32.00
3138.20,0.00
3139.00,63.00
3139.79,64.00
3140.58,21.00
3141.37,-11.00
3142.16,-31.00
3142.95,0.00
3143.74,-21.00
3144.53,-85.00
3145.32,-22.00
3146.10,-10.00
3146.89,21.00
3147.68,31.00
3148.46,74.00
3149.25,21.00
3150.03,11.00
3150.82,42.00
3151.60,21.00
3152.38,0.00
3153.17,11.00
3153.95,0.00
3154.73,21.00
3155.51,0.00
3156.29,10.00
3157.07,53.00
3157.85,85.00
3158.63,85.00
3159.41,31.00
3160.18,21.00
3160.96,32.00
3161.74,42.00
3162.51,21.00
3163.29,32.00
3164.06,21.00
3164.84,32.00
3165.61,32.00
3166.38,-21.00
3167.16,10.00
3167.93,53.00
3168.70,63.00
3169.47,42.00
3170.24,21.00
3171.01,85.00
3171.78,64.00
3172.55,32.00
3173.32,-32.00
3174.09,10.00
3174.85,42.00
3175.62,0.00
3176.39,0.00
3177.15,0.00
3177.92,0.00
3178.68,0.00
3179.45,0.00
3180.21,-21.00
3180.97,-11.00
3181.73,53.00
3182.50,21.00
3183.26,-21.00
3184.02,21.00
3184.78,-11.00
3185.54,21.00
3186.30,63.00
3187.05,53.00
3187.81,21.00
3188.57,32.00
3189.33,0.00
3190.08,-21.00
3190.84,21.00
3191.59,43.00
3192.35,-22.00
3193.10,0.00
3193.86,32.00
3194.61,10.00
3195.36,-21.00
3196.12,-21.00
3196.87,-42.00
3197.62,10.00
3198.37,0.00
3199.12,11.00
3199.87,0.00
3200.62,0.00
3201.36,0.00
3202.11,-42.00
3202.86,-11.00
3203.61,22.00
3204.35,31.00
3205.10,-32.00
3205.84,0.00
3206.59,21.00
3207.33,21.00
3208.08,11.00
3208.82,-10.00
3209.56,32.00
3210.30,32.00
3211.05,10.00
3211.79,21.00
3212.53,0.00
3213.27,32.00
3214.01,63.00
3214.75,21.00
3215.48,-21.00
3216.22,21.00
3216.96,11.00
3217.69,63.00
3218.43,42.00
3219.17,31.00
3219.90,53.00
3220.64,22.00
3221.37,74.00
3222.10,74.00
3222.84,0.00
3223.57,11.00
3224.30,-11.00
3225.03,-11.00
3225.76,21.00
3226.49,21.00
3227.22,42.00
3227.95,63.00
3228.68,32.00
3229.41,11.00
3230.14,63.00
3230.87,43.00
3231.59,75.00
3232.32,42.00
3233.04,-42.00
3233.77,-64.00
3234.49,-64.00
3235.22,11.00
3235.94,42.00
3236.66,42.00
3237.39,53.00
3238.11,43.00
3238.83,85.00
3239.55,63.00
3240.27,11.00
3240.99,53.00
3241.71,43.00
3242.43,0.00
3243.15,22.00
3243.87,63.00
3244.58,128.00
3245.30,53.00
3246.02,-11.00
3246.73,11.00
3247.45,21.00
3248.16,0.00
3248.88,-21.00
3249.59,-32.00
3250.30,21.00
3251.01,43.00
3251.73,85.00
3252.44,21.00
3253.15,-11.00
3253.86,-32.00
3254.57,-85.00
3255.28,-21.00
3255.99,-21.00
3256.70,-21.00
3257.41,21.00
3258.11,63.00
3258.82,74.00
3259.53,32.00
3260.23,-21.00
3260.94,21.00
3261.64,43.00
3262.35,21.00
3263.05,11.00
3263.76,53.00
3264.46,31.00
3265.16,43.00
3265.86,10.00
3266.56,11.00
3267.26,0.00
3267.97,-53.00
3268.67,-22.00
3269.36,0.00
3270.06,21.00
3270.76,22.00
3271.46,42.00
3272.16,32.00
3272.85,0.00
