RamanShift,Intensity
180.91,440.00
183.74,466.00
186.56,603.00
189.39,763.00
192.21,1133.00
195.03,1800.00
197.84,2626.00
200.66,3780.00
203.47,5136.00
206.28,6502.00
209.09,7825.00
211.89,9170.00
214.70,10155.00
217.50,10992.00
220.30,11563.00
223.10,11965.00
225.89,12316.00
228.69,12643.00
231.48,12983.00
234.27,13163.00
237.05,13237.00
239.84,13152.00
242.62,13131.00
245.40,12824.00
248.18,12569.00
250.96,12305.00
253.73,11987.00
256.51,11680.00
259.28,11373.00
262.05,11045.00
264.81,10632.00
267.58,10335.00
270.34,10346.00
273.10,10261.00
275.86,9986.00
278.61,9880.00
281.37,9901.00
284.12,10018.00
286.87,9954.00
289.62,9774.00
292.36,9752.00
295.11,9657.00
297.85,9699.00
300.59,9752.00
303.33,9742.00
306.06,9710.00
308.80,9784.00
311.53,9911.00
314.26,9858.00
316.99,9689.00
319.71,9583.00
322.44,9584.00
325.16,9657.00
327.88,9657.00
330.59,9626.00
333.31,9435.00
336.02,9382.00
338.73,9287.00
341.44,9224.00
344.15,9223.00
346.86,9223.00
349.56,9350.00
352.26,9339.00
354.96,9372.00
357.66,9404.00
360.35,9446.00
363.05,9372.00
365.74,9478.00
368.43,9604.00
371.12,9583.00
373.80,9647.00
376.48,9731.00
379.17,9859.00
381.85,9911.00
384.52,9901.00
387.20,9816.00
389.87,9732.00
392.54,9742.00
395.21,9837.00
397.88,9774.00
400.55,9763.00
403.21,9742.00
405.87,9731.00
408.53,9742.00
411.19,9721.00
413.84,9689.00
416.50,9689.00
419.15,9657.00
421.80,9572.00
424.45,9488.00
427.10,9647.00
429.74,9721.00
432.38,9573.00
435.02,9625.00
437.66,9593.00
440.30,9541.00
442.93,9488.00
445.56,9499.00
448.19,9689.00
450.82,9721.00
453.45,9562.00
456.07,9626.00
458.70,9636.00
461.32,9679.00
463.94,9774.00
466.55,9721.00
469.17,9678.00
471.78,9668.00
474.39,9626.00
477.00,9658.00
479.61,9593.00
482.22,9615.00
484.82,9604.00
487.42,9520.00
490.02,9392.00
492.62,9467.00
495.21,9541.00
497.81,9467.00
500.40,9382.00
502.99,9351.00
505.58,9382.00
508.17,9372.00
510.75,9361.00
513.33,9371.00
515.91,9403.00
518.49,9372.00
521.07,9393.00
523.65,9361.00
526.22,9159.00
528.79,9096.00
531.36,9234.00
533.93,9245.00
536.49,9117.00
539.06,9086.00
541.62,9202.00
544.18,9191.00
546.74,9277.00
549.30,9319.00
551.85,9107.00
554.40,9054.00
556.95,9117.00
559.50,9118.00
562.05,9192.00
564.59,9266.00
567.14,9181.00
569.68,9053.00
572.22,9032.00
574.76,8958.00
577.29,8948.00
579.83,9011.00
582.36,8990.00
584.89,8842.00
587.42,8757.00
589.95,8884.00
592.47,8980.00
594.99,8873.00
597.52,8778.00
600.04,8714.00
602.55,8693.00
605.07,8651.00
607.58,8598.00
610.09,8588.00
612.60,8567.00
615.11,8609.00
617.62,8587.00
620.12,8588.00
622.63,8556.00
625.13,8545.00
627.63,8418.00
630.13,8376.00
632.62,8377.00
635.12,8418.00
637.61,8376.00
640.10,8376.00
642.59,8387.00
645.07,8292.00
647.56,8249.00
650.04,8207.00
652.52,8270.00
655.00,8281.00
657.48,8344.00
659.96,8313.00
662.43,8302.00
664.90,8228.00
667.37,8121.00
669.84,8058.00
672.31,8048.00
674.78,8090.00
677.24,8217.00
679.70,8196.00
682.16,8111.00
684.62,8112.00
687.08,8143.00
689.53,8217.00
691.98,8185.00
694.43,8048.00
696.88,7974.00
699.33,7910.00
701.78,7952.00
704.22,8037.00
706.66,7889.00
709.10,7794.00
711.54,7804.00
713.98,7825.00
716.42,7815.00
718.85,8016.00
721.28,8069.00
723.71,8090.00
726.14,8249.00
728.57,8397.00
730.99,8313.00
733.41,8206.00
735.83,8144.00
738.25,7952.00
740.67,7751.00
743.09,7698.00
745.50,7687.00
747.91,7529.00
750.33,7391.00
752.73,7318.00
755.14,7317.00
757.55,7296.00
759.95,7254.00
762.35,7296.00
764.75,7275.00
767.15,7360.00
769.55,7306.00
771.95,7360.00
774.34,7327.00
776.73,7296.00
779.12,7254.00
781.51,7243.00
783.90,7159.00
786.28,7232.00
788.67,7296.00
791.05,7264.00
793.43,7200.00
795.80,7179.00
798.18,7147.00
800.56,7074.00
802.93,7021.00
805.30,7041.00
807.67,6925.00
810.04,6915.00
812.40,6936.00
814.77,6936.00
817.13,6947.00
819.49,6904.00
821.85,6787.00
824.21,6799.00
826.57,6746.00
828.92,6746.00
831.27,6830.00
833.63,6819.00
835.98,6735.00
838.32,6692.00
840.67,6745.00
843.01,6703.00
845.36,6639.00
847.70,6554.00
850.04,6512.00
852.37,6491.00
854.71,6460.00
857.05,6470.00
859.38,6481.00
861.71,6534.00
864.04,6576.00
866.37,6523.00
868.69,6470.00
871.02,6279.00
873.34,6258.00
875.66,6258.00
877.98,6268.00
880.30,6322.00
882.62,6375.00
884.93,6247.00
887.24,6279.00
889.55,6343.00
891.86,6269.00
894.17,6247.00
896.48,6300.00
898.78,6279.00
901.09,6099.00
903.39,6035.00
905.69,6215.00
907.99,6353.00
910.28,6184.00
912.58,6089.00
914.87,6036.00
917.16,6015.00
919.45,6131.00
921.74,6195.00
924.03,6131.00
926.31,6131.00
928.60,6141.00
930.88,6046.00
933.16,6004.00
935.44,6067.00
937.72,6089.00
939.99,6057.00
942.26,6004.00
944.54,5867.00
946.81,5845.00
949.08,5782.00
951.34,5898.00
953.61,5930.00
955.87,5909.00
958.14,5951.00
960.40,5898.00
962.66,5835.00
964.92,5887.00
967.17,5824.00
969.43,5813.00
971.68,5750.00
973.93,5665.00
976.18,5697.00
978.43,5644.00
980.68,5655.00
982.92,5559.00
985.17,5580.00
987.41,5644.00
989.65,5538.00
991.89,5411.00
994.12,5432.00
996.36,5475.00
998.59,5548.00
1000.83,5421.00
1003.06,5390.00
1005.29,5496.00
1007.51,5549.00
1009.74,5591.00
1011.97,5538.00
1014.19,5453.00
1016.41,5389.00
1018.63,5347.00
1020.85,5305.00
1023.07,5326.00
1025.28,5348.00
1027.49,5411.00
1029.71,5348.00
1031.92,5358.00
1034.13,5422.00
1036.33,5327.00
1038.54,5241.00
1040.74,5263.00
1042.95,5252.00
1045.15,5263.00
1047.35,5274.00
1049.55,5305.00
1051.74,5305.00
1053.94,5242.00
1056.13,5273.00
1058.32,5273.00
1060.51,5252.00
1062.70,5241.00
1064.89,5231.00
1067.08,5157.00
1069.26,5083.00
1071.44,5040.00
1073.63,5008.00
1075.81,4977.00
1077.98,4945.00
1080.16,5008.00
1082.34,5030.00
1084.51,5051.00
1086.68,5114.00
1088.85,5072.00
1091.02,4956.00
1093.19,4945.00
1095.35,4966.00
1097.52,4977.00
1099.68,4977.00
1101.84,4903.00
1104.00,4924.00
1106.16,4945.00
1108.32,4935.00
1110.48,4882.00
1112.63,4892.00
1114.78,4934.00
1116.93,4818.00
1119.08,4755.00
1121.23,4829.00
1123.38,4775.00
1125.52,4691.00
1127.67,4754.00
1129.81,4744.00
1131.95,4797.00
1134.09,4755.00
1136.22,4744.00
1138.36,4776.00
1140.50,4776.00
1142.63,4712.00
1144.76,4722.00
1146.89,4733.00
1149.02,4638.00
1151.15,4543.00
1153.27,4617.00
1155.40,4606.00
1157.52,4543.00
1159.64,4628.00
1161.76,4606.00
1163.88,4543.00
1165.99,4522.00
1168.11,4543.00
1170.22,4554.00
1172.34,4458.00
1174.45,4479.00
1176.56,4479.00
1178.66,4511.00
1180.77,4511.00
1182.88,4511.00
1184.98,4500.00
1187.08,4426.00
1189.18,4458.00
1191.28,4458.00
1193.38,4437.00
1195.47,4468.00
1197.57,4468.00
1199.66,4405.00
1201.75,4437.00
1203.85,4458.00
1205.93,4437.00
1208.02,4415.00
1210.11,4384.00
1212.19,4373.00
1214.28,4373.00
1216.36,4395.00
1218.44,4331.00
1220.52,4353.00
1222.59,4384.00
1224.67,4394.00
1226.74,4373.00
1228.82,4320.00
1230.89,4331.00
1232.96,4500.00
1235.03,4458.00
1237.10,4267.00
1239.16,4288.00
1241.23,4299.00
1243.29,4320.00
1245.35,4247.00
1247.41,4225.00
1249.47,4278.00
1251.53,4331.00
1253.58,4268.00
1255.64,4162.00
1257.69,4140.00
1259.74,4246.00
1261.79,4204.00
1263.84,4141.00
1265.89,4193.00
1267.93,4161.00
1269.98,4119.00
1272.02,4098.00
1274.06,4108.00
1276.10,4013.00
1278.14,4066.00
1280.18,4066.00
1282.22,4014.00
1284.25,4088.00
1286.28,4077.00
1288.32,4046.00
1290.35,4077.00
1292.38,4087.00
1294.40,4035.00
1296.43,3992.00
1298.46,3950.00
1300.48,3908.00
1302.50,3950.00
1304.52,4003.00
1306.54,4024.00
1308.56,4013.00
1310.58,4023.00
1312.59,3992.00
1314.60,4066.00
1316.62,4182.00
1318.63,4225.00
1320.64,4214.00
1322.65,4130.00
1324.65,4172.00
1326.66,4267.00
1328.66,4257.00
1330.66,4247.00
1332.67,4204.00
1334.67,4098.00
1336.66,4045.00
1338.66,4014.00
1340.66,4024.00
1342.65,3918.00
1344.65,3950.00
1346.64,3992.00
1348.63,3918.00
1350.62,3875.00
1352.60,3929.00
1354.59,3939.00
1356.57,3844.00
1358.56,3822.00
1360.54,3823.00
1362.52,3749.00
1364.50,3823.00
1366.48,3876.00
1368.46,3823.00
1370.43,3727.00
1372.41,3738.00
1374.38,3717.00
1376.35,3685.00
1378.32,3674.00
1380.29,3738.00
1382.25,3675.00
1384.22,3622.00
1386.18,3654.00
1388.15,3717.00
1390.11,3664.00
1392.07,3643.00
1394.03,3696.00
1395.99,3696.00
1397.94,3760.00
1399.90,3760.00
1401.85,3643.00
1403.80,3589.00
1405.76,3611.00
1407.71,3695.00
1409.65,3695.00
1411.60,3569.00
1413.55,3505.00
1415.49,3527.00
1417.44,3515.00
1419.38,3526.00
1421.32,3494.00
1423.26,3473.00
1425.19,3442.00
1427.13,3526.00
1429.07,3558.00
1431.00,3505.00
1432.93,3442.00
1434.86,3495.00
1436.79,3505.00
1438.72,3462.00
1440.65,3399.00
1442.57,3484.00
1444.50,3526.00
1446.42,3494.00
1448.34,3441.00
1450.26,3357.00
1452.18,3399.00
1454.10,3431.00
1456.02,3336.00
1457.93,3304.00
1459.85,3367.00
1461.76,3420.00
1463.67,3463.00
1465.58,3441.00
1467.49,3335.00
1469.40,3261.00
1471.31,3357.00
1473.21,3356.00
1475.11,3272.00
1477.02,3187.00
1478.92,3272.00
1480.82,3314.00
1482.72,3272.00
1484.61,3293.00
1486.51,3250.00
1488.40,3240.00
1490.30,3197.00
1492.19,3156.00
1494.08,3103.00
1495.97,3188.00
1497.86,3124.00
1499.74,3156.00
1501.63,3124.00
1503.51,3092.00
1505.40,3145.00
1507.28,3103.00
1509.16,3135.00
1511.04,3135.00
1512.92,3145.00
1514.79,3145.00
1516.67,3167.00
1518.54,3198.00
1520.42,3071.00
1522.29,3114.00
1524.16,3113.00
1526.03,3061.00
1527.89,3050.00
1529.76,3103.00
1531.63,3103.00
1533.49,3039.00
1535.35,3050.00
1537.21,3082.00
1539.07,3092.00
1540.93,2997.00
1542.79,2997.00
1544.65,3071.00
1546.50,3102.00
1548.36,3071.00
1550.21,3018.00
1552.06,2997.00
1553.91,2965.00
1555.76,2965.00
1557.61,2986.00
1559.45,2976.00
1561.30,2975.00
1563.14,2880.00
1564.98,2891.00
1566.82,2901.00
1568.67,2817.00
1570.50,2859.00
1572.34,2849.00
1574.18,2837.00
1576.01,2838.00
1577.85,2848.00
1579.68,2891.00
1581.51,2859.00
1583.34,2732.00
1585.17,2785.00
1587.00,2817.00
1588.82,2753.00
1590.65,2763.00
1592.47,2796.00
1594.30,2774.00
1596.12,2774.00
1597.94,2743.00
1599.76,2785.00
1601.57,2796.00
1603.39,2711.00
1605.21,2690.00
1607.02,2721.00
1608.83,2658.00
1610.64,2669.00
1612.45,2669.00
1614.26,2669.00
1616.07,2647.00
1617.88,2615.00
1619.68,2637.00
1621.49,2636.00
1623.29,2584.00
1625.09,2637.00
1626.89,2627.00
1628.69,2541.00
1630.49,2552.00
1632.29,2573.00
1634.08,2552.00
1635.88,2595.00
1637.67,2615.00
1639.46,2584.00
1641.25,2584.00
1643.04,2584.00
1644.83,2499.00
1646.62,2478.00
1648.41,2541.00
1650.19,2467.00
1651.97,2467.00
1653.76,2446.00
1655.54,2530.00
1657.32,2542.00
1659.10,2404.00
1660.88,2361.00
1662.65,2457.00
1664.43,2489.00
1666.20,2414.00
1667.97,2446.00
1669.75,2424.00
1671.52,2436.00
1673.29,2404.00
1675.05,2372.00
1676.82,2404.00
1678.59,2393.00
1680.35,2393.00
1682.11,2403.00
1683.88,2330.00
1685.64,2308.00
1687.40,2234.00
1689.16,2266.00
1690.91,2329.00
1692.67,2319.00
1694.42,2330.00
1696.18,2340.00
1697.93,2267.00
1699.68,2213.00
1701.43,2287.00
1703.18,2361.00
1704.93,2297.00
1706.68,2181.00
1708.42,2245.00
1710.17,2192.00
1711.91,2139.00
1713.65,2139.00
1715.39,2161.00
1717.13,2150.00
1718.87,2171.00
1720.61,2192.00
1722.35,2202.00
1724.08,2223.00
1725.81,2139.00
1727.55,2076.00
1729.28,2107.00
1731.01,2160.00
1732.74,2108.00
1734.47,2055.00
1736.19,2097.00
1737.92,2065.00
1739.64,2055.00
1741.37,2086.00
1743.09,2054.00
1744.81,2086.00
1746.53,2054.00
1748.25,2012.00
1749.97,2097.00
1751.68,2034.00
1753.40,2012.00
1755.11,2033.00
1756.83,2086.00
1758.54,2108.00
1760.25,2033.00
1761.96,2044.00
1763.67,2097.00
1765.38,2033.00
1767.08,1948.00
1768.79,1938.00
1770.49,1948.00
1772.19,1970.00
1773.90,1948.00
1775.60,1948.00
1777.30,1969.00
1778.99,1991.00
1780.69,1980.00
1782.39,2002.00
1784.08,1970.00
1785.78,1864.00
1787.47,1906.00
1789.16,1991.00
1790.85,1928.00
1792.54,1938.00
1794.23,1938.00
1795.91,1895.00
1797.60,1928.00
1799.28,1927.00
1800.97,1906.00
1802.65,1853.00
1804.33,1864.00
1806.01,1927.00
1807.69,1991.00
1809.37,1959.00
1811.05,1906.00
1812.72,1895.00
1814.40,1843.00
1816.07,1863.00
1817.74,1895.00
1819.41,1864.00
1821.08,1800.00
1822.75,1822.00
1824.42,1843.00
1826.09,1832.00
1827.75,1822.00
1829.42,1822.00
1831.08,1768.00
1832.74,1737.00
1834.40,1800.00
1836.06,1758.00
1837.72,1779.00
1839.38,1779.00
1841.04,1779.00
1842.69,1758.00
1844.35,1758.00
1846.00,1779.00
1847.65,1789.00
1849.30,1779.00
1850.95,1748.00
1852.60,1758.00
1854.25,1757.00
1855.90,1736.00
1857.54,1737.00
1859.19,1737.00
1860.83,1736.00
1862.47,1769.00
1864.12,1758.00
1865.76,1641.00
1867.40,1620.00
1869.03,1652.00
1870.67,1716.00
1872.31,1673.00
1873.94,1673.00
1875.57,1737.00
1877.21,1757.00
1878.84,1716.00
1880.47,1663.00
1882.10,1652.00
1883.73,1662.00
1885.35,1683.00
1886.98,1620.00
1888.61,1567.00
1890.23,1620.00
1891.85,1621.00
1893.47,1567.00
1895.09,1620.00
1896.71,1588.00
1898.33,1546.00
1899.95,1610.00
1901.57,1620.00
1903.18,1578.00
1904.80,1588.00
1906.41,1577.00
1908.02,1525.00
1909.63,1567.00
1911.24,1557.00
1912.85,1536.00
1914.46,1567.00
1916.07,1536.00
1917.67,1515.00
1919.28,1525.00
1920.88,1472.00
1922.48,1451.00
1924.08,1462.00
1925.68,1515.00
1927.28,1515.00
1928.88,1472.00
1930.48,1462.00
1932.07,1451.00
1933.67,1440.00
1935.26,1493.00
1936.86,1535.00
1938.45,1535.00
1940.04,1471.00
1941.63,1482.00
1943.22,1461.00
1944.80,1462.00
1946.39,1493.00
1947.98,1504.00
1949.56,1483.00
1951.14,1493.00
1952.73,1419.00
1954.31,1376.00
1955.89,1398.00
1957.47,1388.00
1959.05,1419.00
1960.62,1450.00
1962.20,1397.00
1963.77,1409.00
1965.35,1440.00
1966.92,1441.00
1968.49,1419.00
1970.06,1409.00
1971.63,1387.00
1973.20,1366.00
1974.77,1377.00
1976.34,1335.00
1977.90,1430.00
1979.47,1419.00
1981.03,1387.00
1982.59,1419.00
1984.15,1356.00
1985.71,1366.00
1987.27,1376.00
1988.83,1313.00
1990.39,1345.00
1991.94,1366.00
1993.50,1345.00
1995.05,1356.00
1996.61,1334.00
1998.16,1334.00
1999.71,1302.00
2001.26,1281.00
2002.81,1313.00
2004.36,1334.00
2005.91,1313.00
2007.45,1291.00
2009.00,1313.00
2010.54,1313.00
2012.08,1271.00
2013.62,1313.00
2015.17,1291.00
2016.71,1239.00
2018.24,1250.00
2019.78,1282.00
2021.32,1302.00
2022.85,1250.00
2024.39,1260.00
2025.92,1292.00
2027.46,1270.00
2028.99,1270.00
2030.52,1292.00
2032.05,1302.00
2033.58,1302.00
2035.10,1291.00
2036.63,1271.00
2038.16,1292.00
2039.68,1292.00
2041.21,1335.00
2042.73,1271.00
2044.25,1260.00
2045.77,1217.00
2047.29,1250.00
2048.81,1218.00
2050.33,1271.00
2051.84,1228.00
2053.36,1197.00
2054.87,1217.00
2056.39,1196.00
2057.90,1207.00
2059.41,1207.00
2060.92,1175.00
2062.43,1207.00
2063.94,1196.00
2065.45,1176.00
2066.95,1208.00
2068.46,1186.00
2069.96,1260.00
2071.47,1249.00
2072.97,1196.00
2074.47,1196.00
2075.97,1175.00
2077.47,1176.00
2078.97,1186.00
2080.47,1186.00
2081.96,1186.00
2083.46,1197.00
2084.95,1155.00
2086.45,1165.00
2087.94,1165.00
2089.43,1155.00
2090.92,1080.00
2092.41,1144.00
2093.90,1133.00
2095.39,1123.00
2096.88,1165.00
2098.36,1059.00
2099.85,1017.00
2101.33,1049.00
2102.81,1059.00
2104.30,1070.00
2105.78,1059.00
2107.26,1027.00
2108.74,1006.00
2110.21,1037.00
2111.69,1059.00
2113.17,1080.00
2114.64,1037.00
2116.12,1017.00
2117.59,1048.00
2119.06,1080.00
2120.53,1122.00
2122.00,1090.00
2123.47,1017.00
2124.94,1048.00
2126.41,1017.00
2127.87,996.00
2129.34,1038.00
2130.80,1070.00
2132.27,1027.00
2133.73,1048.00
2135.19,1101.00
2136.65,1048.00
2138.11,995.00
2139.57,932.00
2141.03,953.00
2142.48,1038.00
2143.94,996.00
2145.39,953.00
2146.85,953.00
2148.30,1006.00
2149.75,996.00
2151.20,953.00
2152.65,953.00
2154.10,911.00
2155.55,964.00
2157.00,1006.00
2158.44,1006.00
2159.89,985.00
2161.33,953.00
2162.78,1006.00
2164.22,1016.00
2165.66,1038.00
2167.10,964.00
2168.54,900.00
2169.98,953.00
2171.42,995.00
2172.85,921.00
2174.29,890.00
2175.72,953.00
2177.16,953.00
2178.59,932.00
2180.02,942.00
2181.45,889.00
2182.88,932.00
2184.31,943.00
2185.74,900.00
2187.17,878.00
2188.59,900.00
2190.02,932.00
2191.44,942.00
2192.87,910.00
2194.29,911.00
2195.71,890.00
2197.13,868.00
2198.55,868.00
2199.97,868.00
2201.39,890.00
2202.81,911.00
2204.22,869.00
2205.64,857.00
2207.05,953.00
2208.46,943.00
2209.88,869.00
2211.29,847.00
2212.70,890.00
2214.11,890.00
2215.52,900.00
2216.92,890.00
2218.33,932.00
2219.74,889.00
2221.14,815.00
2222.54,836.00
2223.95,858.00
2225.35,868.00
2226.75,857.00
2228.15,868.00
2229.55,868.00
2230.95,826.00
2232.35,805.00
2233.74,815.00
2235.14,847.00
2236.53,848.00
2237.93,858.00
2239.32,836.00
2240.71,805.00
2242.10,826.00
2243.49,826.00
2244.88,826.00
2246.27,794.00
2247.66,784.00
2249.04,794.00
2250.43,784.00
2251.81,805.00
2253.20,805.00
2254.58,783.00
2255.96,762.00
2257.34,741.00
2258.72,763.00
2260.10,773.00
2261.48,773.00
2262.86,816.00
2264.23,784.00
2265.61,783.00
2266.98,795.00
2268.36,762.00
2269.73,773.00
2271.10,773.00
2272.47,783.00
2273.84,763.00
2275.21,763.00
2276.58,773.00
2277.95,763.00
2279.31,794.00
2280.68,795.00
2282.05,741.00
2283.41,784.00
2284.77,763.00
2286.13,752.00
2287.50,741.00
2288.86,721.00
2290.22,762.00
2291.57,762.00
2292.93,699.00
2294.29,699.00
2295.64,731.00
2297.00,677.00
2298.35,677.00
2299.71,720.00
2301.06,730.00
2302.41,720.00
2303.76,741.00
2305.11,720.00
2306.46,699.00
2307.81,678.00
2309.15,677.00
2310.50,699.00
2311.84,688.00
2313.19,677.00
2314.53,657.00
2315.87,646.00
2317.22,689.00
2318.56,625.00
2319.90,678.00
2321.24,689.00
2322.57,678.00
2323.91,646.00
2325.25,698.00
2326.58,720.00
2327.92,667.00
2329.25,667.00
2330.58,709.00
2331.91,657.00
2333.25,667.00
2334.58,656.00
2335.90,636.00
2337.23,667.00
2338.56,678.00
2339.89,667.00
2341.21,646.00
2342.54,614.00
2343.86,614.00
2345.19,657.00
2346.51,614.00
2347.83,624.00
2349.15,625.00
2350.47,635.00
2351.79,614.00
2353.11,593.00
2354.42,636.00
2355.74,583.00
2357.06,593.00
2358.37,593.00
2359.68,614.00
2361.00,625.00
2362.31,593.00
2363.62,625.00
2364.93,593.00
2366.24,593.00
2367.55,583.00
2368.86,562.00
2370.16,572.00
2371.47,583.00
2372.77,551.00
2374.08,593.00
2375.38,550.00
2376.68,519.00
2377.98,550.00
2379.29,551.00
2380.59,603.00
2381.88,593.00
2383.18,571.00
2384.48,550.00
2385.78,562.00
2387.07,550.00
2388.37,562.00
2389.66,550.00
2390.95,583.00
2392.25,572.00
2393.54,551.00
2394.83,529.00
2396.12,508.00
2397.41,551.00
2398.70,540.00
2399.98,582.00
2401.27,624.00
2402.55,572.00
2403.84,540.00
2405.12,529.00
2406.41,529.00
2407.69,562.00
2408.97,551.00
2410.25,561.00
2411.53,551.00
2412.81,572.00
2414.09,561.00
2415.36,519.00
2416.64,551.00
2417.91,540.00
2419.19,498.00
2420.46,509.00
2421.74,519.00
2423.01,530.00
2424.28,519.00
2425.55,509.00
2426.82,519.00
2428.09,530.00
2429.36,572.00
2430.62,571.00
2431.89,562.00
2433.15,519.00
2434.42,498.00
2435.68,508.00
2436.94,519.00
2438.21,530.00
2439.47,529.00
2440.73,477.00
2441.99,466.00
2443.25,487.00
2444.51,477.00
2445.76,435.00
2447.02,477.00
2448.27,530.00
2449.53,530.00
2450.78,519.00
2452.03,540.00
2453.29,508.00
2454.54,519.00
2455.79,508.00
2457.04,498.00
2458.29,519.00
2459.54,466.00
2460.78,487.00
2462.03,550.00
2463.27,487.00
2464.52,497.00
2465.76,444.00
2467.01,434.00
2468.25,456.00
2469.49,456.00
2470.73,434.00
2471.97,487.00
2473.21,509.00
2474.45,509.00
2475.69,508.00
2476.92,476.00
2478.16,444.00
2479.39,456.00
2480.63,498.00
2481.86,487.00
2483.09,508.00
2484.32,497.00
2485.56,466.00
2486.79,445.00
2488.02,423.00
2489.24,402.00
2490.47,434.00
2491.70,476.00
2492.92,509.00
2494.15,466.00
2495.37,455.00
2496.60,487.00
2497.82,445.00
2499.04,424.00
2500.26,455.00
2501.48,487.00
2502.70,434.00
2503.92,424.00
2505.14,445.00
2506.36,477.00
2507.58,455.00
2508.79,477.00
2510.01,487.00
2511.22,424.00
2512.43,381.00
2513.64,424.00
2514.86,402.00
2516.07,403.00
2517.28,466.00
2518.49,434.00
2519.70,423.00
2520.90,424.00
2522.11,403.00
2523.32,381.00
2524.52,350.00
2525.73,381.00
2526.93,402.00
2528.13,424.00
2529.33,413.00
2530.54,381.00
2531.74,350.00
2532.94,392.00
2534.14,456.00
2535.33,403.00
2536.53,402.00
2537.73,381.00
2538.92,413.00
2540.12,434.00
2541.31,381.00
2542.51,339.00
2543.70,413.00
2544.89,392.00
2546.08,382.00
2547.27,381.00
2548.46,360.00
2549.65,391.00
2550.84,381.00
2552.03,381.00
2553.21,339.00
2554.40,339.00
2555.58,423.00
2556.77,402.00
2557.95,403.00
2559.13,360.00
2560.31,339.00
2561.50,382.00
2562.68,360.00
2563.85,370.00
2565.03,381.00
2566.21,402.00
2567.39,360.00
2568.56,381.00
2569.74,391.00
2570.91,392.00
2572.09,371.00
2573.26,413.00
2574.43,371.00
2575.61,381.00
2576.78,360.00
2577.95,350.00
2579.12,339.00
2580.29,318.00
2581.45,339.00
2582.62,403.00
2583.79,413.00
2584.95,370.00
2586.12,307.00
2587.28,296.00
2588.44,339.00
2589.61,317.00
2590.77,338.00
2591.93,317.00
2593.09,307.00
2594.25,307.00
2595.41,328.00
2596.56,318.00
2597.72,265.00
2598.88,255.00
2600.03,328.00
2601.19,349.00
2602.34,328.00
2603.50,317.00
2604.65,360.00
2605.80,338.00
2606.95,349.00
2608.10,318.00
2609.25,339.00
2610.40,349.00
2611.55,382.00
2612.70,339.00
2613.84,317.00
2614.99,360.00
2616.13,338.00
2617.28,318.00
2618.42,339.00
2619.56,317.00
2620.71,286.00
2621.85,297.00
2622.99,360.00
2624.13,307.00
2625.27,296.00
2626.40,318.00
2627.54,255.00
2628.68,275.00
2629.81,339.00
2630.95,307.00
2632.08,275.00
2633.22,307.00
2634.35,339.00
2635.48,286.00
2636.61,286.00
2637.74,307.00
2638.87,307.00
2640.00,244.00
2641.13,318.00
2642.26,286.00
2643.39,286.00
2644.51,275.00
2645.64,222.00
2646.76,254.00
2647.89,317.00
2649.01,318.00
2650.13,286.00
2651.25,318.00
2652.38,296.00
2653.50,329.00
2654.62,318.00
2655.73,255.00
2656.85,276.00
2657.97,296.00
2659.09,318.00
2660.20,286.00
2661.32,286.00
2662.43,275.00
2663.55,222.00
2664.66,232.00
2665.77,296.00
2666.88,286.00
2667.99,297.00
2669.10,255.00
2670.21,254.00
2671.32,264.00
2672.43,275.00
2673.54,297.00
2674.64,297.00
2675.75,338.00
2676.85,338.00
2677.96,286.00
2679.06,307.00
2680.16,297.00
2681.26,328.00
2682.37,307.00
2683.47,265.00
2684.57,254.00
2685.66,254.00
2686.76,233.00
2687.86,233.00
2688.96,201.00
2690.05,254.00
2691.15,254.00
2692.24,275.00
2693.34,297.00
2694.43,297.00
2695.52,276.00
2696.62,286.00
2697.71,296.00
2698.80,212.00
2699.89,265.00
2700.98,264.00
2702.06,254.00
2703.15,254.00
2704.24,254.00
2705.32,296.00
2706.41,254.00
2707.49,212.00
2708.58,233.00
2709.66,296.00
2710.74,233.00
2711.83,244.00
2712.91,255.00
2713.99,233.00
2715.07,233.00
2716.15,211.00
2717.22,212.00
2718.30,254.00
2719.38,254.00
2720.45,244.00
2721.53,202.00
2722.60,191.00
2723.68,212.00
2724.75,297.00
2725.82,275.00
2726.89,223.00
2727.97,180.00
2729.04,191.00
2730.11,212.00
2731.17,223.00
2732.24,223.00
2733.31,191.00
2734.38,212.00
2735.44,190.00
2736.51,222.00
2737.57,212.00
2738.64,212.00
2739.70,190.00
2740.76,212.00
2741.82,233.00
2742.89,222.00
2743.95,223.00
2745.01,233.00
2746.07,254.00
2747.12,212.00
2748.18,212.00
2749.24,244.00
2750.29,254.00
2751.35,233.00
2752.40,201.00
2753.46,170.00
2754.51,149.00
2755.57,170.00
2756.62,212.00
2757.67,222.00
2758.72,212.00
2759.77,201.00
2760.82,169.00
2761.87,180.00
2762.91,201.00
2763.96,222.00
2765.01,170.00
2766.05,169.00
2767.10,212.00
2768.14,170.00
2769.19,190.00
2770.23,169.00
2771.27,170.00
2772.31,170.00
2773.35,190.00
2774.40,148.00
2775.43,149.00
2776.47,137.00
2777.51,180.00
2778.55,222.00
2779.59,212.00
2780.62,190.00
2781.66,170.00
2782.69,148.00
2783.73,170.00
2784.76,190.00
2785.79,159.00
2786.82,159.00
2787.85,158.00
2788.89,148.00
2789.92,201.00
2790.94,191.00
2791.97,190.00
2793.00,233.00
2794.03,212.00
2795.05,202.00
2796.08,222.00
2797.11,212.00
2798.13,201.00
2799.15,180.00
2800.18,190.00
2801.20,169.00
2802.22,170.00
2803.24,212.00
2804.26,212.00
2805.28,254.00
2806.30,202.00
2807.32,148.00
2808.34,159.00
2809.35,159.00
2810.37,191.00
2811.39,169.00
2812.40,148.00
2813.41,169.00
2814.43,233.00
2815.44,201.00
2816.45,191.00
2817.46,169.00
2818.48,127.00
2819.49,137.00
2820.49,190.00
2821.50,212.00
2822.51,169.00
2823.52,137.00
2824.53,169.00
2825.53,201.00
2826.54,191.00
2827.54,148.00
2828.55,180.00
2829.55,180.00
2830.55,116.00
2831.55,148.00
2832.56,190.00
2833.56,170.00
2834.56,149.00
2835.56,96.00
2836.56,127.00
2837.55,191.00
2838.55,211.00
2839.55,212.00
2840.54,180.00
2841.54,191.00
2842.53,201.00
2843.53,170.00
2844.52,159.00
2845.51,149.00
2846.51,138.00
2847.50,180.00
2848.49,170.00
2849.48,159.00
2850.47,180.00
2851.46,148.00
2852.45,128.00
2853.43,159.00
2854.42,170.00
2855.41,223.00
2856.39,212.00
2857.38,212.00
2858.36,191.00
2859.34,190.00
2860.33,158.00
2861.31,149.00
2862.29,106.00
2863.27,138.00
2864.25,148.00
2865.23,170.00
2866.21,169.00
2867.19,137.00
2868.17,148.00
2869.14,149.00
2870.12,117.00
2871.09,116.00
2872.07,137.00
2873.04,149.00
2874.02,148.00
2874.99,127.00
2875.96,148.00
2876.93,170.00
2877.91,169.00
2878.88,169.00
2879.85,169.00
2880.82,169.00
2881.78,138.00
2882.75,148.00
2883.72,169.00
2884.69,169.00
2885.65,138.00
2886.62,106.00
2887.58,180.00
2888.55,159.00
2889.51,149.00
2890.47,159.00
2891.43,137.00
2892.39,158.00
2893.36,137.00
2894.31,105.00
2895.27,127.00
2896.23,169.00
2897.19,148.00
2898.15,170.00
2899.11,127.00
2900.06,95.00
2901.02,127.00
2901.97,127.00
2902.93,158.00
2903.88,169.00
2904.83,180.00
2905.79,169.00
2906.74,170.00
2907.69,212.00
2908.64,191.00
2909.59,169.00
2910.54,148.00
2911.49,149.00
2912.43,149.00
2913.38,127.00
2914.33,95.00
2915.27,116.00
2916.22,149.00
2917.16,159.00
2918.11,116.00
2919.05,117.00
2919.99,96.00
2920.94,148.00
2921.88,159.00
2922.82,116.00
2923.76,116.00
2924.70,169.00
2925.64,148.00
2926.58,191.00
2927.51,180.00
2928.45,148.00
2929.39,106.00
2930.32,96.00
2931.26,117.00
2932.19,106.00
2933.13,137.00
2934.06,169.00
2934.99,169.00
2935.92,148.00
2936.86,148.00
2937.79,169.00
2938.72,202.00
2939.65,148.00
2940.57,148.00
2941.50,127.00
2942.43,117.00
2943.36,137.00
2944.28,127.00
2945.21,127.00
2946.13,84.00
2947.06,74.00
2947.98,74.00
2948.91,148.00
2949.83,138.00
2950.75,116.00
2951.67,159.00
2952.59,84.00
2953.51,84.00
2954.43,127.00
2955.35,84.00
2956.27,127.00
2957.19,106.00
2958.10,117.00
2959.02,148.00
2959.94,116.00
2960.85,106.00
2961.77,117.00
2962.68,64.00
2963.59,85.00
2964.51,116.00
2965.42,127.00
2966.33,106.00
2967.24,116.00
2968.15,127.00
2969.06,180.00
2969.97,159.00
2970.88,85.00
2971.78,63.00
2972.69,64.00
2973.60,53.00
2974.50,21.00
2975.41,84.00
2976.31,128.00
2977.22,105.00
2978.12,105.00
2979.02,85.00
2979.93,106.00
2980.83,85.00
2981.73,64.00
2982.63,84.00
2983.53,95.00
2984.43,105.00
2985.33,74.00
2986.22,95.00
2987.12,127.00
2988.02,127.00
2988.91,127.00
2989.81,127.00
2990.70,95.00
2991.60,85.00
2992.49,84.00
2993.38,127.00
2994.28,138.00
2995.17,95.00
2996.06,84.00
2996.95,138.00
2997.84,148.00
2998.73,106.00
2999.62,137.00
3000.51,64.00
3001.40,95.00
3002.28,116.00
3003.17,95.00
3004.05,74.00
3004.94,106.00
3005.82,116.00
3006.71,74.00
3007.59,96.00
3008.47,96.00
3009.36,74.00
3010.24,85.00
3011.12,106.00
3012.00,127.00
3012.88,84.00
3013.76,42.00
3014.64,74.00
3015.51,74.00
3016.39,105.00
3017.27,127.00
3018.14,85.00
3019.02,74.00
3019.89,43.00
3020.77,95.00
3021.64,116.00
3022.52,85.00
3023.39,95.00
3024.26,106.00
3025.13,64.00
3026.00,0.00
3026.87,0.00
3027.74,21.00
3028.61,31.00
3029.48,84.00
3030.35,106.00
3031.21,95.00
3032.08,0.00
3032.95,95.00
3033.81,106.00
3034.68,63.00
3035.54,85.00
3036.40,53.00
3037.27,10.00
3038.13,21.00
3038.99,0.00
3039.85,-21.00
3040.71,21.00
3041.57,53.00
3042.43,64.00
3043.29,74.00
3044.15,63.00
3045.01,53.00
3045.86,43.00
3046.72,85.00
3047.58,64.00
3048.43,22.00
3049.29,52.00
3050.14,32.00
3050.99,53.00
3051.85,53.00
3052.70,117.00
3053.55,106.00
3054.40,53.00
3055.25,43.00
3056.10,74.00
3056.95,64.00
3057.80,42.00
3058.65,106.00
3059.50,95.00
3060.34,74.00
3061.19,74.00
3062.04,74.00
3062.88,95.00
3063.73,31.00
3064.57,-21.00
3065.42,63.00
3066.26,85.00
3067.10,74.00
3067.94,63.00
3068.78,64.00
3069.63,74.00
3070.47,21.00
3071.31,21.00
3072.14,32.00
3072.98,53.00
3073.82,32.00
3074.66,21.00
3075.49,53.00
3076.33,53.00
3077.17,95.00
3078.00,64.00
3078.83,43.00
3079.67,42.00
3080.50,53.00
3081.33,31.00
3082.17,84.00
3083.00,63.00
3083.83,42.00
3084.66,63.00
3085.49,22.00
3086.32,52.00
3087.15,74.00
3087.97,106.00
3088.80,85.00
3089.63,74.00
3090.46,116.00
3091.28,85.00
3092.11,127.00
3092.93,85.00
3093.75,32.00
3094.58,85.00
3095.40,116.00
3096.22,84.00
3097.05,53.00
3097.87,84.00
3098.69,106.00
3099.51,127.00
3100.33,74.00
3101.15,42.00
3101.96,63.00
3102.78,43.00
3103.60,64.00
3104.42,53.00
3105.23,43.00
3106.05,53.00
3106.86,53.00
3107.68,32.00
3108.49,21.00
3109.30,42.00
3110.12,85.00
3110.93,43.00
3111.74,53.00
3112.55,85.00
3113.36,84.00
3114.17,74.00
3114.98,105.00
3115.79,75.00
3116.60,32.00
3117.40,43.00
3118.21,85.00
3119.02,53.00
3119.82,43.00
3120.63,95.00
3121.43,85.00
3122.24,53.00
3123.04,21.00
3123.84,32.00
3124.65,84.00
3125.45,53.00
3126.25,21.00
3127.05,31.00
3127.85,74.00
3128.65,63.00
3129.45,53.00
3130.25,42.00
3131.05,21.00
3131.84,10.00
3132.64,63.00
3133.44,32.00
3134.23,53.00
3135.03,63.00
3135.82,85.00
3136.62,64.00
3137.41,53.00
3138.20,42.00
3139.00,21.00
3139.79,42.00
3140.58,74.00
3141.37,32.00
3142.16,63.00
3142.95,85.00
3143.74,64.00
3144.53,53.00
3145.32,43.00
3146.10,63.00
3146.89,84.00
3147.68,53.00
3148.46,74.00
3149.25,106.00
3150.03,96.00
3150.82,32.00
3151.60,53.00
3152.38,43.00
3153.17,21.00
3153.95,63.00
3154.73,63.00
3155.51,32.00
3156.29,22.00
3157.07,53.00
3157.85,85.00
3158.63,64.00
3159.41,21.00
3160.18,53.00
3160.96,63.00
3161.74,43.00
3162.51,32.00
3163.29,11.00
3164.06,-22.00
3164.84,-10.00
3165.61,11.00
3166.38,0.00
3167.16,10.00
3167.93,0.00
3168.70,0.00
3169.47,53.00
3170.24,32.00
3171.01,74.00
3171.78,42.00
3172.55,43.00
3173.32,53.00
3174.09,42.00
3174.85,43.00
3175.62,21.00
3176.39,21.00
3177.15,31.00
3177.92,11.00
3178.68,43.00
3179.45,85.00
3180.21,42.00
3180.97,43.00
3181.73,63.00
3182.50,21.00
3183.26,32.00
3184.02,0.00
3184.78,42.00
3185.54,32.00
3186.30,0.00
3187.05,21.00
3187.81,22.00
3188.57,42.00
3189.33,31.00
3190.08,21.00
3190.84,-11.00
3191.59,10.00
3192.35,42.00
3193.10,32.00
3193.86,43.00
3194.61,42.00
3195.36,53.00
3196.12,85.00
3196.87,85.00
3197.62,84.00
3198.37,53.00
3199.12,42.00
3199.87,42.00
3200.62,42.00
3201.36,11.00
3202.11,21.00
3202.86,32.00
3203.61,11.00
3204.35,42.00
3205.10,32.00
3205.84,-11.00
3206.59,11.00
3207.33,42.00
3208.08,42.00
3208.82,63.00
3209.56,74.00
3210.30,42.00
3211.05,31.00
3211.79,21.00
3212.53,0.00
3213.27,43.00
3214.01,32.00
3214.75,0.00
3215.48,-22.00
3216.22,-42.00
3216.96,11.00
3217.69,63.00
3218.43,85.00
3219.17,75.00
3219.90,42.00
3220.64,10.00
3221.37,32.00
3222.10,0.00
3222.84,-21.00
3223.57,0.00
3224.30,10.00
3225.03,-32.00
3225.76,-42.00
3226.49,11.00
3227.22,11.00
3227.95,-21.00
3228.68,0.00
3229.41,21.00
3230.14,-21.00
3230.87,0.00
3231.59,42.00
3232.32,53.00
3233.04,0.00
3233.77,-11.00
3234.49,-22.00
3235.22,21.00
3235.94,32.00
3236.66,32.00
3237.39,42.00
3238.11,0.00
3238.83,0.00
3239.55,0.00
3240.27,21.00
3240.99,-21.00
3241.71,0.00
3242.43,10.00
3243.15,10.00
3243.87,42.00
3244.58,21.00
3245.30,-21.00
3246.02,-53.00
3246.73,-10.00
3247.45,-11.00
3248.16,-10.00
3248.88,0.00
3249.59,-22.00
3250.30,0.00
3251.01,11.00
3251.73,-11.00
3252.44,64.00
3253.15,42.00
3253.86,21.00
3254.57,31.00
3255.28,63.00
3255.99,21.00
3256.70,0.00
3257.41,21.00
3258.11,11.00
3258.82,-11.00
3259.53,31.00
3260.23,74.00
3260.94,42.00
3261.64,11.00
3262.35,11.00
3263.05,0.00
3263.76,52.00
3264.46,74.00
3265.16,32.00
3265.86,21.00
3266.56,32.00
3267.26,53.00
3267.97,-11.00
3268.67,-53.00
3269.36,-43.00
3270.06,-22.00
3270.76,11.00
3271.46,31.00
3272.16,64.00
3272.85,0.00
