RamanShift,Intensity
180.91,196.00
183.74,307.00
186.56,329.00
189.39,392.00
192.21,508.00
195.03,688.00
197.84,932.00
200.66,1271.00
203.47,1630.00
206.28,1810.00
209.09,2118.00
211.89,2446.00
214.70,2658.00
217.50,2732.00
220.30,2891.00
223.10,2933.00
225.89,2912.00
228.69,2976.00
231.48,3092.00
234.27,3134.00
237.05,3166.00
239.84,3167.00
242.62,3092.00
245.40,3007.00
248.18,2934.00
250.96,2944.00
253.73,2944.00
256.51,2923.00
259.28,2848.00
262.05,2753.00
264.81,2806.00
267.58,2732.00
270.34,2658.00
273.10,2658.00
275.86,2626.00
278.61,2721.00
281.37,2711.00
284.12,2700.00
286.87,2647.00
289.62,2626.00
292.36,2605.00
295.11,2605.00
297.85,2605.00
300.59,2647.00
303.33,2668.00
306.06,2605.00
308.80,2605.00
311.53,2626.00
314.26,2594.00
316.99,2563.00
319.71,2679.00
322.44,2648.00
325.16,2647.00
327.88,2627.00
330.59,2637.00
333.31,2637.00
336.02,2552.00
338.73,2531.00
341.44,2583.00
344.15,2541.00
346.86,2573.00
349.56,2637.00
352.26,2563.00
354.96,2499.00
357.66,2563.00
360.35,2531.00
363.05,2467.00
365.74,2594.00
368.43,2648.00
371.12,2615.00
373.80,2658.00
376.48,2721.00
379.17,2743.00
381.85,2732.00
384.52,2710.00
387.20,2721.00
389.87,2700.00
392.54,2679.00
395.21,2690.00
397.88,2668.00
400.55,2679.00
403.21,2732.00
405.87,2700.00
408.53,2754.00
411.19,2837.00
413.84,2774.00
416.50,2637.00
419.15,2605.00
421.80,2594.00
424.45,2594.00
427.10,2574.00
429.74,2605.00
432.38,2669.00
435.02,2616.00
437.66,2636.00
440.30,2668.00
442.93,2626.00
445.56,2648.00
448.19,2732.00
450.82,2721.00
453.45,2669.00
456.07,2722.00
458.70,2754.00
461.32,2721.00
463.94,2700.00
466.55,2774.00
469.17,2732.00
471.78,2700.00
474.39,2701.00
477.00,2690.00
479.61,2711.00
482.22,2711.00
484.82,2742.00
487.42,2700.00
490.02,2658.00
492.62,2605.00
495.21,2648.00
497.81,2668.00
500.40,2648.00
502.99,2605.00
505.58,2562.00
508.17,2574.00
510.75,2615.00
513.33,2658.00
515.91,2700.00
518.49,2605.00
521.07,2552.00
523.65,2605.00
526.22,2626.00
528.79,2626.00
531.36,2626.00
533.93,2637.00
536.49,2605.00
539.06,2626.00
541.62,2594.00
544.18,2615.00
546.74,2636.00
549.30,2636.00
551.85,2583.00
554.40,2658.00
556.95,2669.00
559.50,2647.00
562.05,2562.00
564.59,2626.00
567.14,2605.00
569.68,2584.00
572.22,2563.00
574.76,2584.00
577.29,2562.00
579.83,2562.00
582.36,2541.00
584.89,2457.00
587.42,2468.00
589.95,2520.00
592.47,2531.00
594.99,2573.00
597.52,2499.00
600.04,2457.00
602.55,2425.00
605.07,2414.00
607.58,2415.00
610.09,2457.00
612.60,2509.00
615.11,2425.00
617.62,2425.00
620.12,2457.00
622.63,2446.00
625.13,2425.00
627.63,2330.00
630.13,2404.00
632.62,2404.00
635.12,2393.00
637.61,2394.00
640.10,2404.00
642.59,2383.00
645.07,2309.00
647.56,2341.00
650.04,2371.00
652.52,2340.00
655.00,2319.00
657.48,2340.00
659.96,2329.00
662.43,2362.00
664.90,2404.00
667.37,2424.00
669.84,2351.00
672.31,2403.00
674.78,2350.00
677.24,2351.00
679.70,2393.00
682.16,2361.00
684.62,2308.00
687.08,2287.00
689.53,2298.00
691.98,2309.00
694.43,2308.00
696.88,2297.00
699.33,2308.00
701.78,2329.00
704.22,2341.00
706.66,2287.00
709.10,2287.00
711.54,2277.00
713.98,2256.00
716.42,2319.00
718.85,2393.00
721.28,2361.00
723.71,2298.00
726.14,2435.00
728.57,2457.00
730.99,2456.00
733.41,2520.00
735.83,2456.00
738.25,2467.00
740.67,2351.00
743.09,2266.00
745.50,2181.00
747.91,2139.00
750.33,2181.00
752.73,2150.00
755.14,2097.00
757.55,2118.00
759.95,2054.00
762.35,2033.00
764.75,2086.00
767.15,2160.00
769.55,2139.00
771.95,2075.00
774.34,2118.00
776.73,2129.00
779.12,2075.00
781.51,2054.00
783.90,2065.00
786.28,2022.00
788.67,2075.00
791.05,2097.00
793.43,2012.00
795.80,2044.00
798.18,2086.00
800.56,2076.00
802.93,2022.00
805.30,2033.00
807.67,2034.00
810.04,2033.00
812.40,2034.00
814.77,2086.00
817.13,2022.00
819.49,2023.00
821.85,1948.00
824.21,1917.00
826.57,1991.00
828.92,1969.00
831.27,1969.00
833.63,1938.00
835.98,1948.00
838.32,1970.00
840.67,2012.00
843.01,1906.00
845.36,1800.00
847.70,1779.00
850.04,1842.00
852.37,1853.00
854.71,1811.00
857.05,1864.00
859.38,1885.00
861.71,1863.00
864.04,1853.00
866.37,1821.00
868.69,1779.00
871.02,1842.00
873.34,1864.00
875.66,1811.00
877.98,1768.00
880.30,1789.00
882.62,1811.00
884.93,1821.00
887.24,1822.00
889.55,1822.00
891.86,1843.00
894.17,1864.00
896.48,1843.00
898.78,1884.00
901.09,1843.00
903.39,1874.00
905.69,1885.00
907.99,1800.00
910.28,1757.00
912.58,1736.00
914.87,1726.00
917.16,1737.00
919.45,1737.00
921.74,1736.00
924.03,1811.00
926.31,1747.00
928.60,1705.00
930.88,1790.00
933.16,1843.00
935.44,1769.00
937.72,1715.00
939.99,1716.00
942.26,1705.00
944.54,1737.00
946.81,1737.00
949.08,1758.00
951.34,1726.00
953.61,1747.00
955.87,1736.00
958.14,1684.00
960.40,1704.00
962.66,1737.00
964.92,1758.00
967.17,1716.00
969.43,1705.00
971.68,1641.00
973.93,1620.00
976.18,1609.00
978.43,1610.00
980.68,1662.00
982.92,1641.00
985.17,1599.00
987.41,1630.00
989.65,1630.00
991.89,1588.00
994.12,1588.00
996.36,1588.00
998.59,1578.00
1000.83,1599.00
1003.06,1599.00
1005.29,1588.00
1007.51,1599.00
1009.74,1567.00
1011.97,1589.00
1014.19,1610.00
1016.41,1588.00
1018.63,1556.00
1020.85,1621.00
1023.07,1588.00
1025.28,1578.00
1027.49,1609.00
1029.71,1588.00
1031.92,1546.00
1034.13,1536.00
1036.33,1546.00
1038.54,1599.00
1040.74,1589.00
1042.95,1493.00
1045.15,1482.00
1047.35,1525.00
1049.55,1557.00
1051.74,1535.00
1053.94,1609.00
1056.13,1652.00
1058.32,1525.00
1060.51,1483.00
1062.70,1472.00
1064.89,1503.00
1067.08,1504.00
1069.26,1483.00
1071.44,1503.00
1073.63,1556.00
1075.81,1515.00
1077.98,1503.00
1080.16,1525.00
1082.34,1493.00
1084.51,1483.00
1086.68,1525.00
1088.85,1525.00
1091.02,1525.00
1093.19,1483.00
1095.35,1440.00
1097.52,1461.00
1099.68,1429.00
1101.84,1398.00
1104.00,1355.00
1106.16,1366.00
1108.32,1472.00
1110.48,1441.00
1112.63,1419.00
1114.78,1429.00
1116.93,1408.00
1119.08,1429.00
1121.23,1461.00
1123.38,1408.00
1125.52,1461.00
1127.67,1440.00
1129.81,1387.00
1131.95,1376.00
1134.09,1355.00
1136.22,1334.00
1138.36,1409.00
1140.50,1377.00
1142.63,1356.00
1144.76,1366.00
1146.89,1387.00
1149.02,1323.00
1151.15,1302.00
1153.27,1366.00
1155.40,1345.00
1157.52,1323.00
1159.64,1281.00
1161.76,1292.00
1163.88,1344.00
1165.99,1376.00
1168.11,1355.00
1170.22,1302.00
1172.34,1270.00
1174.45,1282.00
1176.56,1334.00
1178.66,1313.00
1180.77,1281.00
1182.88,1334.00
1184.98,1324.00
1187.08,1345.00
1189.18,1313.00
1191.28,1334.00
1193.38,1366.00
1195.47,1324.00
1197.57,1228.00
1199.66,1250.00
1201.75,1303.00
1203.85,1260.00
1205.93,1292.00
1208.02,1303.00
1210.11,1313.00
1212.19,1314.00
1214.28,1292.00
1216.36,1281.00
1218.44,1281.00
1220.52,1282.00
1222.59,1271.00
1224.67,1270.00
1226.74,1218.00
1228.82,1250.00
1230.89,1292.00
1232.96,1271.00
1235.03,1208.00
1237.10,1176.00
1239.16,1197.00
1241.23,1208.00
1243.29,1197.00
1245.35,1239.00
1247.41,1292.00
1249.47,1207.00
1251.53,1218.00
1253.58,1271.00
1255.64,1292.00
1257.69,1314.00
1259.74,1260.00
1261.79,1238.00
1263.84,1249.00
1265.89,1217.00
1267.93,1218.00
1269.98,1281.00
1272.02,1260.00
1274.06,1208.00
1276.10,1186.00
1278.14,1197.00
1280.18,1228.00
1282.22,1186.00
1284.25,1197.00
1286.28,1176.00
1288.32,1197.00
1290.35,1175.00
1292.38,1133.00
1294.40,1144.00
1296.43,1186.00
1298.46,1197.00
1300.48,1165.00
1302.50,1133.00
1304.52,1144.00
1306.54,1154.00
1308.56,1133.00
1310.58,1112.00
1312.59,1144.00
1314.60,1186.00
1316.62,1186.00
1318.63,1186.00
1320.64,1186.00
1322.65,1207.00
1324.65,1249.00
1326.66,1228.00
1328.66,1208.00
1330.66,1249.00
1332.67,1270.00
1334.67,1260.00
1336.66,1260.00
1338.66,1186.00
1340.66,1207.00
1342.65,1197.00
1344.65,1228.00
1346.64,1207.00
1348.63,1186.00
1350.62,1197.00
1352.60,1228.00
1354.59,1154.00
1356.57,1122.00
1358.56,1165.00
1360.54,1155.00
1362.52,1165.00
1364.50,1112.00
1366.48,1123.00
1368.46,1122.00
1370.43,1122.00
1372.41,1101.00
1374.38,1091.00
1376.35,1091.00
1378.32,1059.00
1380.29,1112.00
1382.25,1122.00
1384.22,1091.00
1386.18,1070.00
1388.15,1049.00
1390.11,1112.00
1392.07,1059.00
1394.03,1038.00
1395.99,1112.00
1397.94,1133.00
1399.90,1090.00
1401.85,1102.00
1403.80,1123.00
1405.76,1091.00
1407.71,1102.00
1409.65,1059.00
1411.60,1028.00
1413.55,1038.00
1415.49,1070.00
1417.44,1081.00
1419.38,1080.00
1421.32,1048.00
1423.26,1049.00
1425.19,1038.00
1427.13,1080.00
1429.07,1070.00
1431.00,1006.00
1432.93,995.00
1434.86,1006.00
1436.79,953.00
1438.72,985.00
1440.65,995.00
1442.57,1016.00
1444.50,1017.00
1446.42,974.00
1448.34,995.00
1450.26,1048.00
1452.18,1006.00
1454.10,953.00
1456.02,964.00
1457.93,1017.00
1459.85,1048.00
1461.76,985.00
1463.67,943.00
1465.58,1006.00
1467.49,995.00
1469.40,995.00
1471.31,995.00
1473.21,964.00
1475.11,953.00
1477.02,932.00
1478.92,963.00
1480.82,974.00
1482.72,995.00
1484.61,995.00
1486.51,953.00
1488.40,953.00
1490.30,932.00
1492.19,953.00
1494.08,964.00
1495.97,953.00
1497.86,921.00
1499.74,900.00
1501.63,921.00
1503.51,911.00
1505.40,953.00
1507.28,932.00
1509.16,868.00
1511.04,868.00
1512.92,911.00
1514.79,932.00
1516.67,942.00
1518.54,953.00
1520.42,900.00
1522.29,826.00
1524.16,858.00
1526.03,900.00
1527.89,900.00
1529.76,932.00
1531.63,900.00
1533.49,890.00
1535.35,837.00
1537.21,868.00
1539.07,900.00
1540.93,910.00
1542.79,911.00
1544.65,889.00
1546.50,869.00
1548.36,858.00
1550.21,869.00
1552.06,890.00
1553.91,911.00
1555.76,858.00
1557.61,805.00
1559.45,826.00
1561.30,826.00
1563.14,826.00
1564.98,848.00
1566.82,783.00
1568.67,783.00
1570.50,784.00
1572.34,847.00
1574.18,847.00
1576.01,836.00
1577.85,858.00
1579.68,858.00
1581.51,847.00
1583.34,763.00
1585.17,784.00
1587.00,837.00
1588.82,826.00
1590.65,784.00
1592.47,805.00
1594.30,794.00
1596.12,826.00
1597.94,784.00
1599.76,794.00
1601.57,783.00
1603.39,751.00
1605.21,741.00
1607.02,731.00
1608.83,731.00
1610.64,773.00
1612.45,784.00
1614.26,795.00
1616.07,826.00
1617.88,763.00
1619.68,721.00
1621.49,762.00
1623.29,763.00
1625.09,762.00
1626.89,805.00
1628.69,794.00
1630.49,763.00
1632.29,752.00
1634.08,720.00
1635.88,741.00
1637.67,741.00
1639.46,762.00
1641.25,752.00
1643.04,741.00
1644.83,720.00
1646.62,731.00
1648.41,720.00
1650.19,752.00
1651.97,699.00
1653.76,667.00
1655.54,731.00
1657.32,710.00
1659.10,709.00
1660.88,698.00
1662.65,689.00
1664.43,710.00
1666.20,773.00
1667.97,762.00
1669.75,773.00
1671.52,762.00
1673.29,677.00
1675.05,667.00
1676.82,646.00
1678.59,678.00
1680.35,699.00
1682.11,709.00
1683.88,688.00
1685.64,678.00
1687.40,656.00
1689.16,677.00
1690.91,668.00
1692.67,667.00
1694.42,667.00
1696.18,656.00
1697.93,678.00
1699.68,667.00
1701.43,678.00
1703.18,656.00
1704.93,678.00
1706.68,720.00
1708.42,667.00
1710.17,614.00
1711.91,582.00
1713.65,614.00
1715.39,667.00
1717.13,646.00
1718.87,593.00
1720.61,614.00
1722.35,656.00
1724.08,614.00
1725.81,593.00
1727.55,530.00
1729.28,604.00
1731.01,615.00
1732.74,562.00
1734.47,572.00
1736.19,593.00
1737.92,583.00
1739.64,635.00
1741.37,614.00
1743.09,572.00
1744.81,540.00
1746.53,550.00
1748.25,614.00
1749.97,572.00
1751.68,604.00
1753.40,625.00
1755.11,571.00
1756.83,593.00
1758.54,583.00
1760.25,519.00
1761.96,529.00
1763.67,603.00
1765.38,572.00
1767.08,561.00
1768.79,540.00
1770.49,550.00
1772.19,583.00
1773.90,562.00
1775.60,530.00
1777.30,551.00
1778.99,540.00
1780.69,540.00
1782.39,551.00
1784.08,561.00
1785.78,582.00
1787.47,530.00
1789.16,519.00
1790.85,572.00
1792.54,593.00
1794.23,540.00
1795.91,572.00
1797.60,593.00
1799.28,571.00
1800.97,551.00
1802.65,561.00
1804.33,572.00
1806.01,530.00
1807.69,550.00
1809.37,551.00
1811.05,604.00
1812.72,561.00
1814.40,518.00
1816.07,540.00
1817.74,550.00
1819.41,562.00
1821.08,540.00
1822.75,551.00
1824.42,561.00
1826.09,529.00
1827.75,508.00
1829.42,508.00
1831.08,488.00
1832.74,487.00
1834.40,550.00
1836.06,593.00
1837.72,561.00
1839.38,466.00
1841.04,456.00
1842.69,497.00
1844.35,530.00
1846.00,508.00
1847.65,540.00
1849.30,519.00
1850.95,508.00
1852.60,498.00
1854.25,498.00
1855.90,455.00
1857.54,477.00
1859.19,455.00
1860.83,518.00
1862.47,519.00
1864.12,519.00
1865.76,497.00
1867.40,445.00
1869.03,530.00
1870.67,519.00
1872.31,445.00
1873.94,477.00
1875.57,477.00
1877.21,434.00
1878.84,487.00
1880.47,487.00
1882.10,444.00
1883.73,477.00
1885.35,466.00
1886.98,497.00
1888.61,509.00
1890.23,508.00
1891.85,508.00
1893.47,434.00
1895.09,445.00
1896.71,466.00
1898.33,498.00
1899.95,508.00
1901.57,508.00
1903.18,465.00
1904.80,466.00
1906.41,476.00
1908.02,466.00
1909.63,424.00
1911.24,424.00
1912.85,466.00
1914.46,487.00
1916.07,413.00
1917.67,402.00
1919.28,413.00
1920.88,424.00
1922.48,455.00
1924.08,413.00
1925.68,455.00
1927.28,466.00
1928.88,477.00
1930.48,413.00
1932.07,402.00
1933.67,434.00
1935.26,466.00
1936.86,466.00
1938.45,455.00
1940.04,466.00
1941.63,434.00
1943.22,413.00
1944.80,381.00
1946.39,413.00
1947.98,444.00
1949.56,413.00
1951.14,413.00
1952.73,381.00
1954.31,392.00
1955.89,402.00
1957.47,445.00
1959.05,413.00
1960.62,392.00
1962.20,455.00
1963.77,424.00
1965.35,392.00
1966.92,382.00
1968.49,423.00
1970.06,445.00
1971.63,466.00
1973.20,413.00
1974.77,392.00
1976.34,402.00
1977.90,402.00
1979.47,403.00
1981.03,403.00
1982.59,371.00
1984.15,381.00
1985.71,360.00
1987.27,392.00
1988.83,402.00
1990.39,382.00
1991.94,381.00
1993.50,403.00
1995.05,382.00
1996.61,360.00
1998.16,381.00
1999.71,424.00
2001.26,434.00
2002.81,423.00
2004.36,423.00
2005.91,382.00
2007.45,382.00
2009.00,413.00
2010.54,370.00
2012.08,339.00
2013.62,349.00
2015.17,381.00
2016.71,360.00
2018.24,350.00
2019.78,360.00
2021.32,391.00
2022.85,381.00
2024.39,339.00
2025.92,318.00
2027.46,349.00
2028.99,360.00
2030.52,382.00
2032.05,349.00
2033.58,339.00
2035.10,349.00
2036.63,339.00
2038.16,318.00
2039.68,360.00
2041.21,350.00
2042.73,392.00
2044.25,381.00
2045.77,370.00
2047.29,381.00
2048.81,360.00
2050.33,350.00
2051.84,391.00
2053.36,391.00
2054.87,360.00
2056.39,286.00
2057.90,285.00
2059.41,339.00
2060.92,338.00
2062.43,339.00
2063.94,328.00
2065.45,317.00
2066.95,328.00
2068.46,381.00
2069.96,318.00
2071.47,307.00
2072.97,338.00
2074.47,318.00
2075.97,360.00
2077.47,360.00
2078.97,360.00
2080.47,318.00
2081.96,318.00
2083.46,339.00
2084.95,328.00
2086.45,286.00
2087.94,297.00
2089.43,297.00
2090.92,297.00
2092.41,307.00
2093.90,338.00
2095.39,381.00
2096.88,349.00
2098.36,318.00
2099.85,328.00
2101.33,339.00
2102.81,339.00
2104.30,286.00
2105.78,254.00
2107.26,317.00
2108.74,318.00
2110.21,307.00
2111.69,349.00
2113.17,360.00
2114.64,360.00
2116.12,328.00
2117.59,317.00
2119.06,296.00
2120.53,296.00
2122.00,350.00
2123.47,339.00
2124.94,338.00
2126.41,328.00
2127.87,318.00
2129.34,296.00
2130.80,276.00
2132.27,296.00
2133.73,328.00
2135.19,307.00
2136.65,307.00
2138.11,296.00
2139.57,328.00
2141.03,286.00
2142.48,264.00
2143.94,264.00
2145.39,296.00
2146.85,297.00
2148.30,318.00
2149.75,317.00
2151.20,286.00
2152.65,276.00
2154.10,296.00
2155.55,296.00
2157.00,254.00
2158.44,254.00
2159.89,264.00
2161.33,307.00
2162.78,265.00
2164.22,243.00
2165.66,212.00
2167.10,233.00
2168.54,254.00
2169.98,297.00
2171.42,318.00
2172.85,318.00
2174.29,255.00
2175.72,296.00
2177.16,276.00
2178.59,286.00
2180.02,233.00
2181.45,223.00
2182.88,244.00
2184.31,275.00
2185.74,307.00
2187.17,255.00
2188.59,223.00
2190.02,275.00
2191.44,275.00
2192.87,328.00
2194.29,297.00
2195.71,243.00
2197.13,264.00
2198.55,296.00
2199.97,254.00
2201.39,212.00
2202.81,255.00
2204.22,233.00
2205.64,254.00
2207.05,275.00
2208.46,254.00
2209.88,275.00
2211.29,297.00
2212.70,275.00
2214.11,222.00
2215.52,233.00
2216.92,255.00
2218.33,212.00
2219.74,233.00
2221.14,297.00
2222.54,276.00
2223.95,233.00
2225.35,244.00
2226.75,276.00
2228.15,276.00
2229.55,254.00
2230.95,276.00
2232.35,222.00
2233.74,222.00
2235.14,233.00
2236.53,233.00
2237.93,275.00
2239.32,243.00
2240.71,233.00
2242.10,265.00
2243.49,254.00
2244.88,264.00
2246.27,254.00
2247.66,212.00
2249.04,223.00
2250.43,212.00
2251.81,233.00
2253.20,243.00
2254.58,255.00
2255.96,254.00
2257.34,212.00
2258.72,212.00
2260.10,254.00
2261.48,254.00
2262.86,233.00
2264.23,202.00
2265.61,191.00
2266.98,223.00
2268.36,222.00
2269.73,180.00
2271.10,201.00
2272.47,190.00
2273.84,191.00
2275.21,149.00
2276.58,159.00
2277.95,190.00
2279.31,170.00
2280.68,170.00
2282.05,191.00
2283.41,212.00
2284.77,244.00
2286.13,233.00
2287.50,233.00
2288.86,212.00
2290.22,212.00
2291.57,201.00
2292.93,169.00
2294.29,180.00
2295.64,180.00
2297.00,191.00
2298.35,212.00
2299.71,233.00
2301.06,233.00
2302.41,190.00
2303.76,190.00
2305.11,169.00
2306.46,191.00
2307.81,170.00
2309.15,190.00
2310.50,233.00
2311.84,243.00
2313.19,212.00
2314.53,212.00
2315.87,233.00
2317.22,223.00
2318.56,211.00
2319.90,191.00
2321.24,191.00
2322.57,222.00
2323.91,137.00
2325.25,148.00
2326.58,212.00
2327.92,233.00
2329.25,190.00
2330.58,212.00
2331.91,170.00
2333.25,127.00
2334.58,180.00
2335.90,191.00
2337.23,233.00
2338.56,222.00
2339.89,180.00
2341.21,170.00
2342.54,169.00
2343.86,169.00
2345.19,191.00
2346.51,169.00
2347.83,180.00
2349.15,212.00
2350.47,233.00
2351.79,223.00
2353.11,201.00
2354.42,243.00
2355.74,191.00
2357.06,180.00
2358.37,212.00
2359.68,190.00
2361.00,180.00
2362.31,191.00
2363.62,169.00
2364.93,159.00
2366.24,127.00
2367.55,170.00
2368.86,212.00
2370.16,190.00
2371.47,159.00
2372.77,159.00
2374.08,169.00
2375.38,159.00
2376.68,159.00
2377.98,127.00
2379.29,127.00
2380.59,169.00
2381.88,180.00
2383.18,169.00
2384.48,212.00
2385.78,190.00
2387.07,191.00
2388.37,180.00
2389.66,191.00
2390.95,202.00
2392.25,190.00
2393.54,223.00
2394.83,159.00
2396.12,138.00
2397.41,191.00
2398.70,243.00
2399.98,169.00
2401.27,148.00
2402.55,138.00
2403.84,148.00
2405.12,148.00
2406.41,148.00
2407.69,116.00
2408.97,180.00
2410.25,201.00
2411.53,159.00
2412.81,169.00
2414.09,211.00
2415.36,148.00
2416.64,191.00
2417.91,159.00
2419.19,149.00
2420.46,128.00
2421.74,180.00
2423.01,158.00
2424.28,149.00
2425.55,148.00
2426.82,138.00
2428.09,190.00
2429.36,201.00
2430.62,158.00
2431.89,127.00
2433.15,148.00
2434.42,148.00
2435.68,169.00
2436.94,169.00
2438.21,180.00
2439.47,148.00
2440.73,169.00
2441.99,159.00
2443.25,159.00
2444.51,148.00
2445.76,170.00
2447.02,127.00
2448.27,85.00
2449.53,128.00
2450.78,138.00
2452.03,180.00
2453.29,159.00
2454.54,148.00
2455.79,169.00
2457.04,116.00
2458.29,127.00
2459.54,127.00
2460.78,117.00
2462.03,106.00
2463.27,116.00
2464.52,191.00
2465.76,169.00
2467.01,116.00
2468.25,117.00
2469.49,117.00
2470.73,138.00
2471.97,148.00
2473.21,127.00
2474.45,127.00
2475.69,127.00
2476.92,127.00
2478.16,148.00
2479.39,148.00
2480.63,137.00
2481.86,116.00
2483.09,137.00
2484.32,127.00
2485.56,106.00
2486.79,148.00
2488.02,202.00
2489.24,169.00
2490.47,148.00
2491.70,148.00
2492.92,149.00
2494.15,159.00
2495.37,127.00
2496.60,105.00
2497.82,96.00
2499.04,127.00
2500.26,170.00
2501.48,127.00
2502.70,148.00
2503.92,148.00
2505.14,170.00
2506.36,138.00
2507.58,148.00
2508.79,159.00
2510.01,170.00
2511.22,128.00
2512.43,116.00
2513.64,117.00
2514.86,95.00
2516.07,95.00
2517.28,85.00
2518.49,127.00
2519.70,169.00
2520.90,127.00
2522.11,84.00
2523.32,84.00
2524.52,127.00
2525.73,85.00
2526.93,106.00
2528.13,127.00
2529.33,138.00
2530.54,138.00
2531.74,148.00
2532.94,85.00
2534.14,84.00
2535.33,148.00
2536.53,117.00
2537.73,149.00
2538.92,117.00
2540.12,148.00
2541.31,170.00
2542.51,169.00
2543.70,127.00
2544.89,149.00
2546.08,116.00
2547.27,138.00
2548.46,138.00
2549.65,170.00
2550.84,148.00
2552.03,84.00
2553.21,138.00
2554.40,148.00
2555.58,116.00
2556.77,127.00
2557.95,116.00
2559.13,85.00
2560.31,96.00
2561.50,127.00
2562.68,127.00
2563.85,84.00
2565.03,95.00
2566.21,117.00
2567.39,138.00
2568.56,159.00
2569.74,148.00
2570.91,148.00
2572.09,159.00
2573.26,127.00
2574.43,32.00
2575.61,63.00
2576.78,85.00
2577.95,85.00
2579.12,43.00
2580.29,84.00
2581.45,74.00
2582.62,106.00
2583.79,105.00
2584.95,106.00
2586.12,127.00
2587.28,159.00
2588.44,106.00
2589.61,127.00
2590.77,106.00
2591.93,84.00
2593.09,85.00
2594.25,85.00
2595.41,127.00
2596.56,52.00
2597.72,95.00
2598.88,137.00
2600.03,74.00
2601.19,53.00
2602.34,64.00
2603.50,127.00
2604.65,106.00
2605.80,138.00
2606.95,116.00
2608.10,106.00
2609.25,85.00
2610.40,85.00
2611.55,127.00
2612.70,127.00
2613.84,138.00
2614.99,159.00
2616.13,117.00
2617.28,85.00
2618.42,84.00
2619.56,85.00
2620.71,138.00
2621.85,138.00
2622.99,117.00
2624.13,95.00
2625.27,85.00
2626.40,106.00
2627.54,127.00
2628.68,84.00
2629.81,85.00
2630.95,64.00
2632.08,63.00
2633.22,117.00
2634.35,117.00
2635.48,84.00
2636.61,96.00
2637.74,74.00
2638.87,106.00
2640.00,106.00
2641.13,127.00
2642.26,84.00
2643.39,85.00
2644.51,74.00
2645.64,85.00
2646.76,84.00
2647.89,84.00
2649.01,106.00
2650.13,85.00
2651.25,53.00
2652.38,106.00
2653.50,85.00
2654.62,85.00
2655.73,85.00
2656.85,64.00
2657.97,74.00
2659.09,84.00
2660.20,106.00
2661.32,95.00
2662.43,84.00
2663.55,106.00
2664.66,116.00
2665.77,74.00
2666.88,42.00
2667.99,106.00
2669.10,127.00
2670.21,85.00
2671.32,95.00
2672.43,84.00
2673.54,64.00
2674.64,85.00
2675.75,64.00
2676.85,43.00
2677.96,42.00
2679.06,85.00
2680.16,64.00
2681.26,85.00
2682.37,127.00
2683.47,95.00
2684.57,84.00
2685.66,85.00
2686.76,85.00
2687.86,32.00
2688.96,64.00
2690.05,64.00
2691.15,32.00
2692.24,21.00
2693.34,64.00
2694.43,127.00
2695.52,106.00
2696.62,95.00
2697.71,84.00
2698.80,74.00
2699.89,106.00
2700.98,85.00
2702.06,96.00
2703.15,74.00
2704.24,74.00
2705.32,74.00
2706.41,42.00
2707.49,53.00
2708.58,53.00
2709.66,53.00
2710.74,42.00
2711.83,64.00
2712.91,63.00
2713.99,85.00
2715.07,106.00
2716.15,42.00
2717.22,22.00
2718.30,85.00
2719.38,84.00
2720.45,106.00
2721.53,74.00
2722.60,74.00
2723.68,96.00
2724.75,85.00
2725.82,74.00
2726.89,117.00
2727.97,64.00
2729.04,53.00
2730.11,74.00
2731.17,64.00
2732.24,21.00
2733.31,53.00
2734.38,74.00
2735.44,74.00
2736.51,43.00
2737.57,43.00
2738.64,105.00
2739.70,127.00
2740.76,85.00
2741.82,63.00
2742.89,32.00
2743.95,53.00
2745.01,42.00
2746.07,32.00
2747.12,53.00
2748.18,32.00
2749.24,42.00
2750.29,53.00
2751.35,85.00
2752.40,64.00
2753.46,85.00
2754.51,74.00
2755.57,53.00
2756.62,43.00
2757.67,64.00
2758.72,64.00
2759.77,106.00
2760.82,74.00
2761.87,74.00
2762.91,116.00
2763.96,117.00
2765.01,85.00
2766.05,85.00
2767.10,53.00
2768.14,42.00
2769.19,64.00
2770.23,53.00
2771.27,64.00
2772.31,43.00
2773.35,64.00
2774.40,53.00
2775.43,64.00
2776.47,64.00
2777.51,74.00
2778.55,32.00
2779.59,32.00
2780.62,85.00
2781.66,85.00
2782.69,84.00
2783.73,127.00
2784.76,85.00
2785.79,84.00
2786.82,105.00
2787.85,64.00
2788.89,53.00
2789.92,32.00
2790.94,42.00
2791.97,42.00
2793.00,64.00
2794.03,32.00
2795.05,0.00
2796.08,85.00
2797.11,74.00
2798.13,53.00
2799.15,32.00
2800.18,63.00
2801.20,63.00
2802.22,43.00
2803.24,53.00
2804.26,85.00
2805.28,138.00
2806.30,106.00
2807.32,85.00
2808.34,53.00
2809.35,53.00
2810.37,64.00
2811.39,74.00
2812.40,21.00
2813.41,21.00
2814.43,64.00
2815.44,85.00
2816.45,74.00
2817.46,11.00
2818.48,53.00
2819.49,32.00
2820.49,64.00
2821.50,95.00
2822.51,74.00
2823.52,32.00
2824.53,21.00
2825.53,53.00
2826.54,53.00
2827.54,31.00
2828.55,85.00
2829.55,85.00
2830.55,74.00
2831.55,63.00
2832.56,63.00
2833.56,84.00
2834.56,53.00
2835.56,53.00
2836.56,106.00
2837.55,106.00
2838.55,74.00
2839.55,64.00
2840.54,84.00
2841.54,42.00
2842.53,53.00
2843.53,64.00
2844.52,75.00
2845.51,85.00
2846.51,85.00
2847.50,84.00
2848.49,63.00
2849.48,31.00
2850.47,53.00
2851.46,42.00
2852.45,43.00
2853.43,53.00
2854.42,43.00
2855.41,53.00
2856.39,11.00
2857.38,53.00
2858.36,85.00
2859.34,63.00
2860.33,85.00
2861.31,32.00
2862.29,32.00
2863.27,42.00
2864.25,64.00
2865.23,42.00
2866.21,42.00
2867.19,0.00
2868.17,0.00
2869.14,53.00
2870.12,64.00
2871.09,106.00
2872.07,74.00
2873.04,64.00
2874.02,42.00
2874.99,11.00
2875.96,32.00
2876.93,63.00
2877.91,74.00
2878.88,53.00
2879.85,22.00
2880.82,22.00
2881.78,22.00
2882.75,42.00
2883.72,64.00
2884.69,85.00
2885.65,42.00
2886.62,63.00
2887.58,74.00
2888.55,42.00
2889.51,0.00
2890.47,53.00
2891.43,43.00
2892.39,127.00
2893.36,95.00
2894.31,53.00
2895.27,53.00
2896.23,53.00
2897.19,42.00
2898.15,31.00
2899.11,53.00
2900.06,21.00
2901.02,63.00
2901.97,74.00
2902.93,84.00
2903.88,64.00
2904.83,21.00
2905.79,11.00
2906.74,21.00
2907.69,53.00
2908.64,95.00
2909.59,85.00
2910.54,21.00
2911.49,0.00
2912.43,0.00
2913.38,21.00
2914.33,11.00
2915.27,43.00
2916.22,43.00
2917.16,42.00
2918.11,63.00
2919.05,84.00
2919.99,96.00
2920.94,127.00
2921.88,85.00
2922.82,-10.00
2923.76,11.00
2924.70,0.00
2925.64,-43.00
2926.58,21.00
2927.51,53.00
2928.45,53.00
2929.39,84.00
2930.32,74.00
2931.26,43.00
2932.19,85.00
2933.13,21.00
2934.06,11.00
2934.99,42.00
2935.92,53.00
2936.86,32.00
2937.79,21.00
2938.72,11.00
2939.65,0.00
2940.57,52.00
2941.50,53.00
2942.43,32.00
2943.36,53.00
2944.28,32.00
2945.21,21.00
2946.13,42.00
2947.06,32.00
2947.98,21.00
2948.91,-21.00
2949.83,-10.00
2950.75,42.00
2951.67,74.00
2952.59,32.00
2953.51,53.00
2954.43,64.00
2955.35,84.00
2956.27,32.00
2957.19,42.00
2958.10,0.00
2959.02,53.00
2959.94,32.00
2960.85,-42.00
2961.77,21.00
2962.68,43.00
2963.59,52.00
2964.51,42.00
2965.42,74.00
2966.33,32.00
2967.24,21.00
2968.15,32.00
2969.06,0.00
2969.97,84.00
2970.88,85.00
2971.78,21.00
2972.69,21.00
2973.60,32.00
2974.50,63.00
2975.41,22.00
2976.31,32.00
2977.22,64.00
2978.12,85.00
2979.02,116.00
2979.93,74.00
2980.83,63.00
2981.73,84.00
2982.63,95.00
2983.53,85.00
2984.43,63.00
2985.33,84.00
2986.22,32.00
2987.12,42.00
2988.02,43.00
2988.91,0.00
2989.81,42.00
2990.70,95.00
2991.60,74.00
2992.49,42.00
2993.38,21.00
2994.28,21.00
2995.17,63.00
2996.06,32.00
2996.95,21.00
2997.84,53.00
2998.73,43.00
2999.62,42.00
3000.51,21.00
3001.40,0.00
3002.28,10.00
3003.17,21.00
3004.05,0.00
3004.94,42.00
3005.82,43.00
3006.71,42.00
3007.59,84.00
3008.47,21.00
3009.36,10.00
3010.24,21.00
3011.12,42.00
3012.00,63.00
3012.88,42.00
3013.76,-21.00
3014.64,0.00
3015.51,11.00
3016.39,32.00
3017.27,21.00
3018.14,21.00
3019.02,0.00
3019.89,32.00
3020.77,43.00
3021.64,10.00
3022.52,21.00
3023.39,21.00
3024.26,43.00
3025.13,31.00
3026.00,11.00
3026.87,-10.00
3027.74,-11.00
3028.61,22.00
3029.48,-21.00
3030.35,-32.00
3031.21,-11.00
3032.08,-10.00
3032.95,0.00
3033.81,21.00
3034.68,0.00
3035.54,0.00
3036.40,0.00
3037.27,21.00
3038.13,43.00
3038.99,22.00
3039.85,0.00
3040.71,85.00
3041.57,95.00
3042.43,32.00
3043.29,21.00
3044.15,43.00
3045.01,21.00
3045.86,0.00
3046.72,-11.00
3047.58,31.00
3048.43,-10.00
3049.29,-22.00
3050.14,0.00
3050.99,42.00
3051.85,43.00
3052.70,-21.00
3053.55,-11.00
3054.40,0.00
3055.25,53.00
3056.10,21.00
3056.95,53.00
3057.80,64.00
3058.65,21.00
3059.50,53.00
3060.34,74.00
3061.19,84.00
3062.04,31.00
3062.88,42.00
3063.73,22.00
3064.57,53.00
3065.42,74.00
3066.26,43.00
3067.10,0.00
3067.94,21.00
3068.78,85.00
3069.63,74.00
3070.47,74.00
3071.31,64.00
3072.14,63.00
3072.98,22.00
3073.82,-11.00
3074.66,-21.00
3075.49,21.00
3076.33,53.00
3077.17,32.00
3078.00,21.00
3078.83,32.00
3079.67,0.00
3080.50,10.00
3081.33,21.00
3082.17,11.00
3083.00,-42.00
3083.83,-64.00
3084.66,21.00
3085.49,42.00
3086.32,52.00
3087.15,64.00
3087.97,53.00
3088.80,32.00
3089.63,31.00
3090.46,22.00
3091.28,32.00
3092.11,21.00
3092.93,42.00
3093.75,42.00
3094.58,-31.00
3095.40,0.00
3096.22,42.00
3097.05,32.00
3097.87,31.00
3098.69,0.00
3099.51,-22.00
3100.33,-22.00
3101.15,-22.00
3101.96,32.00
3102.78,32.00
3103.60,0.00
3104.42,10.00
3105.23,22.00
3106.05,11.00
3106.86,43.00
3107.68,85.00
3108.49,-21.00
3109.30,21.00
3110.12,0.00
3110.93,-63.00
3111.74,21.00
3112.55,63.00
3113.36,74.00
3114.17,53.00
3114.98,21.00
3115.79,11.00
3116.60,-32.00
3117.40,0.00
3118.21,53.00
3119.02,53.00
3119.82,32.00
3120.63,-11.00
3121.43,-11.00
3122.24,53.00
3123.04,21.00
3123.84,0.00
3124.65,-10.00
3125.45,21.00
3126.25,11.00
3127.05,-10.00
3127.85,32.00
3128.65,53.00
3129.45,42.00
3130.25,-10.00
3131.05,53.00
3131.84,21.00
3132.64,32.00
3133.44,31.00
3134.23,11.00
3135.03,32.00
3135.82,75.00
3136.62,74.00
3137.41,85.00
3138.20,43.00
3139.00,-21.00
3139.79,-10.00
3140.58,42.00
3141.37,85.00
3142.16,32.00
3142.95,21.00
3143.74,21.00
3144.53,32.00
3145.32,63.00
3146.10,-11.00
3146.89,-11.00
3147.68,11.00
3148.46,-21.00
3149.25,32.00
3150.03,21.00
3150.82,-10.00
3151.60,0.00
3152.38,-10.00
3153.17,0.00
3153.95,32.00
3154.73,43.00
3155.51,21.00
3156.29,53.00
3157.07,43.00
3157.85,-21.00
3158.63,-42.00
3159.41,-21.00
3160.18,21.00
3160.96,32.00
3161.74,0.00
3162.51,0.00
3163.29,21.00
3164.06,43.00
3164.84,21.00
3165.61,0.00
3166.38,0.00
3167.16,10.00
3167.93,21.00
3168.70,63.00
3169.47,127.00
3170.24,63.00
3171.01,42.00
3171.78,11.00
3172.55,21.00
3173.32,21.00
3174.09,0.00
3174.85,-11.00
3175.62,-10.00
3176.39,0.00
3177.15,31.00
3177.92,43.00
3178.68,0.00
3179.45,10.00
3180.21,0.00
3180.97,31.00
3181.73,21.00
3182.50,21.00
3183.26,11.00
3184.02,-31.00
3184.78,0.00
3185.54,0.00
3186.30,21.00
3187.05,0.00
3187.81,10.00
3188.57,10.00
3189.33,53.00
3190.08,63.00
3190.84,64.00
3191.59,-21.00
3192.35,0.00
3193.10,10.00
3193.86,10.00
3194.61,0.00
3195.36,11.00
3196.12,-10.00
3196.87,-10.00
3197.62,10.00
3198.37,-11.00
3199.12,63.00
3199.87,32.00
3200.62,0.00
3201.36,32.00
3202.11,0.00
3202.86,11.00
3203.61,43.00
3204.35,11.00
3205.10,42.00
3205.84,42.00
3206.59,42.00
3207.33,0.00
3208.08,-32.00
3208.82,10.00
3209.56,32.00
3210.30,42.00
3211.05,42.00
3211.79,22.00
3212.53,32.00
3213.27,-21.00
3214.01,-31.00
3214.75,42.00
3215.48,22.00
3216.22,32.00
3216.96,21.00
3217.69,22.00
3218.43,42.00
3219.17,21.00
3219.90,10.00
3220.64,32.00
3221.37,32.00
3222.10,43.00
3222.84,42.00
3223.57,43.00
3224.30,42.00
3225.03,10.00
3225.76,11.00
3226.49,84.00
3227.22,42.00
3227.95,42.00
3228.68,21.00
3229.41,21.00
3230.14,32.00
3230.87,-32.00
3231.59,-11.00
3232.32,10.00
3233.04,11.00
3233.77,21.00
3234.49,0.00
3235.22,0.00
3235.94,-32.00
3236.66,-21.00
3237.39,0.00
3238.11,10.00
3238.83,32.00
3239.55,53.00
3240.27,63.00
3240.99,32.00
3241.71,32.00
3242.43,53.00
3243.15,43.00
3243.87,21.00
3244.58,43.00
3245.30,31.00
3246.02,10.00
3246.73,-42.00
3247.45,11.00
3248.16,32.00
3248.88,0.00
3249.59,-21.00
3250.30,21.00
3251.01,43.00
3251.73,21.00
3252.44,85.00
3253.15,43.00
3253.86,21.00
3254.57,-53.00
3255.28,-32.00
3255.99,-21.00
3256.70,-43.00
3257.41,-32.00
3258.11,-21.00
3258.82,32.00
3259.53,10.00
3260.23,32.00
3260.94,21.00
3261.64,53.00
3262.35,21.00
3263.05,-74.00
3263.76,-32.00
3264.46,53.00
3265.16,74.00
3265.86,63.00
3266.56,42.00
3267.26,-53.00
3267.97,-53.00
3268.67,31.00
3269.36,31.00
3270.06,11.00
3270.76,21.00
3271.46,43.00
3272.16,32.00
3272.85,0.00
