RamanShift,Intensity
180.91,423.00
183.74,476.00
186.56,657.00
189.39,1016.00
192.21,1641.00
195.03,2414.00
197.84,3409.00
200.66,4849.00
203.47,6459.00
206.28,8037.00
209.09,9667.00
211.89,11278.00
214.70,12771.00
217.50,13617.00
220.30,13904.00
223.10,14433.00
225.89,14951.00
228.69,15185.00
231.48,15449.00
234.27,15682.00
237.05,15693.00
239.84,15503.00
242.62,15227.00
245.40,15132.00
248.18,15058.00
250.96,14835.00
253.73,14529.00
256.51,14221.00
259.28,13946.00
262.05,13596.00
264.81,13385.00
267.58,13364.00
270.34,13258.00
273.10,12930.00
275.86,12834.00
278.61,12834.00
281.37,12876.00
284.12,12855.00
286.87,12803.00
289.62,12760.00
292.36,12728.00
295.11,12760.00
297.85,12844.00
300.59,12877.00
303.33,12855.00
306.06,12750.00
308.80,12908.00
311.53,13035.00
314.26,12961.00
316.99,12982.00
319.71,12930.00
322.44,12866.00
325.16,12951.00
327.88,12961.00
330.59,12750.00
333.31,12696.00
336.02,12707.00
338.73,12643.00
341.44,12580.00
344.15,12591.00
346.86,12548.00
349.56,12496.00
352.26,12431.00
354.96,12517.00
357.66,12654.00
360.35,12643.00
363.05,12622.00
365.74,12707.00
368.43,12781.00
371.12,12792.00
373.80,12919.00
376.48,13035.00
379.17,13152.00
381.85,13183.00
384.52,13067.00
387.20,13025.00
389.87,13215.00
392.54,13162.00
395.21,13120.00
397.88,13194.00
400.55,13215.00
403.21,13120.00
405.87,13152.00
408.53,13109.00
411.19,13035.00
413.84,13025.00
416.50,13141.00
419.15,13067.00
421.80,12961.00
424.45,12940.00
427.10,12876.00
429.74,13004.00
432.38,13046.00
435.02,13014.00
437.66,12898.00
440.30,12887.00
442.93,13035.00
445.56,12993.00
448.19,12887.00
450.82,13035.00
453.45,13131.00
456.07,13014.00
458.70,12993.00
461.32,12961.00
463.94,12950.00
466.55,12961.00
469.17,13046.00
471.78,13152.00
474.39,13110.00
477.00,12972.00
479.61,12845.00
482.22,12887.00
484.82,13067.00
487.42,12993.00
490.02,12876.00
492.62,12930.00
495.21,12982.00
497.81,12950.00
500.40,12823.00
502.99,12898.00
505.58,12792.00
508.17,12760.00
510.75,12707.00
513.33,12623.00
515.91,12707.00
518.49,12707.00
521.07,12728.00
523.65,12718.00
526.22,12707.00
528.79,12749.00
531.36,12686.00
533.93,12707.00
536.49,12622.00
539.06,12506.00
541.62,12632.00
544.18,12728.00
546.74,12655.00
549.30,12665.00
551.85,12665.00
554.40,12601.00
556.95,12506.00
559.50,12464.00
562.05,12548.00
564.59,12558.00
567.14,12496.00
569.68,12400.00
572.22,12294.00
574.76,12231.00
577.29,12220.00
579.83,12337.00
582.36,12263.00
584.89,12251.00
587.42,12262.00
589.95,12125.00
592.47,12135.00
594.99,12199.00
597.52,12093.00
600.04,11945.00
602.55,11881.00
605.07,11912.00
607.58,11956.00
610.09,11966.00
612.60,11913.00
615.11,11892.00
617.62,11976.00
620.12,11923.00
622.63,11669.00
625.13,11584.00
627.63,11595.00
630.13,11564.00
632.62,11521.00
635.12,11458.00
637.61,11405.00
640.10,11436.00
642.59,11415.00
645.07,11341.00
647.56,11267.00
650.04,11267.00
652.52,11246.00
655.00,11288.00
657.48,11204.00
659.96,11224.00
662.43,11182.00
664.90,11108.00
667.37,11277.00
669.84,11257.00
672.31,11098.00
674.78,11130.00
677.24,11214.00
679.70,11161.00
682.16,11256.00
684.62,11172.00
687.08,11129.00
689.53,11235.00
691.98,11086.00
694.43,10970.00
696.88,10918.00
699.33,10790.00
701.78,10706.00
704.22,10790.00
706.66,10801.00
709.10,10717.00
711.54,10684.00
713.98,10759.00
716.42,10885.00
718.85,10970.00
721.28,11245.00
723.71,11489.00
726.14,11680.00
728.57,11818.00
730.99,11923.00
733.41,11775.00
735.83,11585.00
738.25,11320.00
740.67,10938.00
743.09,10631.00
745.50,10451.00
747.91,10366.00
750.33,10293.00
752.73,10123.00
755.14,10071.00
757.55,10028.00
759.95,10060.00
762.35,10134.00
764.75,10187.00
767.15,10208.00
769.55,10187.00
771.95,10091.00
774.34,9954.00
776.73,9900.00
779.12,9932.00
781.51,9943.00
783.90,9975.00
786.28,9933.00
788.67,9911.00
791.05,9912.00
793.43,9890.00
795.80,9922.00
798.18,9827.00
800.56,9816.00
802.93,9901.00
805.30,9784.00
807.67,9731.00
810.04,9721.00
812.40,9605.00
814.77,9498.00
817.13,9477.00
819.49,9584.00
821.85,9551.00
824.21,9265.00
826.57,9244.00
828.92,9223.00
831.27,9234.00
833.63,9308.00
835.98,9392.00
838.32,9276.00
840.67,9181.00
843.01,9266.00
845.36,9265.00
847.70,9032.00
850.04,9074.00
852.37,9075.00
854.71,8947.00
857.05,8884.00
859.38,8927.00
861.71,8947.00
864.04,8821.00
866.37,8789.00
868.69,8821.00
871.02,8885.00
873.34,8916.00
875.66,8927.00
877.98,8789.00
880.30,8630.00
882.62,8652.00
884.93,8757.00
887.24,8715.00
889.55,8673.00
891.86,8694.00
894.17,8598.00
896.48,8546.00
898.78,8630.00
901.09,8556.00
903.39,8609.00
905.69,8577.00
907.99,8503.00
910.28,8440.00
912.58,8492.00
914.87,8566.00
917.16,8524.00
919.45,8440.00
921.74,8440.00
924.03,8460.00
926.31,8440.00
928.60,8450.00
930.88,8418.00
933.16,8387.00
935.44,8323.00
937.72,8312.00
939.99,8281.00
942.26,8143.00
944.54,8185.00
946.81,8239.00
949.08,8249.00
951.34,8238.00
953.61,8249.00
955.87,8323.00
958.14,8280.00
960.40,8292.00
962.66,8260.00
964.92,8207.00
967.17,8090.00
969.43,7984.00
971.68,7867.00
973.93,7814.00
976.18,7815.00
978.43,7783.00
980.68,7847.00
982.92,7910.00
985.17,7889.00
987.41,7719.00
989.65,7624.00
991.89,7550.00
994.12,7476.00
996.36,7550.00
998.59,7528.00
1000.83,7592.00
1003.06,7613.00
1005.29,7550.00
1007.51,7476.00
1009.74,7402.00
1011.97,7507.00
1014.19,7540.00
1016.41,7508.00
1018.63,7518.00
1020.85,7572.00
1023.07,7614.00
1025.28,7529.00
1027.49,7381.00
1029.71,7391.00
1031.92,7381.00
1034.13,7381.00
1036.33,7391.00
1038.54,7402.00
1040.74,7423.00
1042.95,7413.00
1045.15,7307.00
1047.35,7243.00
1049.55,7264.00
1051.74,7275.00
1053.94,7137.00
1056.13,7126.00
1058.32,7116.00
1060.51,7127.00
1062.70,7200.00
1064.89,7179.00
1067.08,7126.00
1069.26,7094.00
1071.44,6947.00
1073.63,6978.00
1075.81,7020.00
1077.98,7084.00
1080.16,7095.00
1082.34,6989.00
1084.51,7031.00
1086.68,7010.00
1088.85,7000.00
1091.02,6936.00
1093.19,6851.00
1095.35,6851.00
1097.52,6809.00
1099.68,6787.00
1101.84,6830.00
1104.00,6830.00
1106.16,6777.00
1108.32,6767.00
1110.48,6714.00
1112.63,6703.00
1114.78,6745.00
1116.93,6798.00
1119.08,6756.00
1121.23,6809.00
1123.38,6840.00
1125.52,6724.00
1127.67,6565.00
1129.81,6576.00
1131.95,6576.00
1134.09,6491.00
1136.22,6449.00
1138.36,6311.00
1140.50,6343.00
1142.63,6459.00
1144.76,6428.00
1146.89,6375.00
1149.02,6354.00
1151.15,6364.00
1153.27,6364.00
1155.40,6343.00
1157.52,6353.00
1159.64,6311.00
1161.76,6215.00
1163.88,6258.00
1165.99,6385.00
1168.11,6386.00
1170.22,6300.00
1172.34,6311.00
1174.45,6269.00
1176.56,6163.00
1178.66,6152.00
1180.77,6131.00
1182.88,6185.00
1184.98,6227.00
1187.08,6173.00
1189.18,6174.00
1191.28,6121.00
1193.38,6099.00
1195.47,6110.00
1197.57,6088.00
1199.66,6047.00
1201.75,6121.00
1203.85,6131.00
1205.93,6152.00
1208.02,6067.00
1210.11,5962.00
1212.19,5961.00
1214.28,5909.00
1216.36,6004.00
1218.44,6089.00
1220.52,6131.00
1222.59,6089.00
1224.67,6047.00
1226.74,6004.00
1228.82,6025.00
1230.89,6004.00
1232.96,5898.00
1235.03,5908.00
1237.10,5920.00
1239.16,5920.00
1241.23,5846.00
1243.29,5898.00
1245.35,5920.00
1247.41,5877.00
1249.47,5846.00
1251.53,5877.00
1253.58,5867.00
1255.64,5898.00
1257.69,5867.00
1259.74,5697.00
1261.79,5697.00
1263.84,5729.00
1265.89,5686.00
1267.93,5666.00
1269.98,5601.00
1272.02,5538.00
1274.06,5601.00
1276.10,5602.00
1278.14,5644.00
1280.18,5633.00
1282.22,5644.00
1284.25,5591.00
1286.28,5507.00
1288.32,5527.00
1290.35,5496.00
1292.38,5464.00
1294.40,5475.00
1296.43,5443.00
1298.46,5433.00
1300.48,5348.00
1302.50,5400.00
1304.52,5475.00
1306.54,5495.00
1308.56,5506.00
1310.58,5453.00
1312.59,5474.00
1314.60,5507.00
1316.62,5644.00
1318.63,5707.00
1320.64,5707.00
1322.65,5729.00
1324.65,5750.00
1326.66,5877.00
1328.66,5877.00
1330.66,5845.00
1332.67,5834.00
1334.67,5729.00
1336.66,5592.00
1338.66,5570.00
1340.66,5517.00
1342.65,5538.00
1344.65,5507.00
1346.64,5401.00
1348.63,5464.00
1350.62,5411.00
1352.60,5316.00
1354.59,5284.00
1356.57,5305.00
1358.56,5284.00
1360.54,5294.00
1362.52,5157.00
1364.50,5136.00
1366.48,5072.00
1368.46,4998.00
1370.43,5072.00
1372.41,5094.00
1374.38,5136.00
1376.35,5073.00
1378.32,4999.00
1380.29,4998.00
1382.25,4998.00
1384.22,5030.00
1386.18,4967.00
1388.15,5009.00
1390.11,5019.00
1392.07,4988.00
1394.03,5009.00
1395.99,5083.00
1397.94,5083.00
1399.90,5030.00
1401.85,4987.00
1403.80,4998.00
1405.76,4903.00
1407.71,4861.00
1409.65,4744.00
1411.60,4712.00
1413.55,4819.00
1415.49,4903.00
1417.44,4861.00
1419.38,4765.00
1421.32,4755.00
1423.26,4733.00
1425.19,4712.00
1427.13,4691.00
1429.07,4649.00
1431.00,4691.00
1432.93,4754.00
1434.86,4818.00
1436.79,4691.00
1438.72,4713.00
1440.65,4787.00
1442.57,4734.00
1444.50,4521.00
1446.42,4427.00
1448.34,4437.00
1450.26,4500.00
1452.18,4564.00
1454.10,4628.00
1456.02,4596.00
1457.93,4532.00
1459.85,4628.00
1461.76,4543.00
1463.67,4500.00
1465.58,4564.00
1467.49,4542.00
1469.40,4479.00
1471.31,4437.00
1473.21,4522.00
1475.11,4564.00
1477.02,4373.00
1478.92,4288.00
1480.82,4310.00
1482.72,4352.00
1484.61,4363.00
1486.51,4363.00
1488.40,4373.00
1490.30,4300.00
1492.19,4268.00
1494.08,4310.00
1495.97,4331.00
1497.86,4225.00
1499.74,4225.00
1501.63,4310.00
1503.51,4257.00
1505.40,4226.00
1507.28,4267.00
1509.16,4268.00
1511.04,4246.00
1512.92,4141.00
1514.79,4225.00
1516.67,4225.00
1518.54,4183.00
1520.42,4247.00
1522.29,4172.00
1524.16,4151.00
1526.03,4119.00
1527.89,4141.00
1529.76,4055.00
1531.63,4013.00
1533.49,4034.00
1535.35,4024.00
1537.21,4109.00
1539.07,4067.00
1540.93,4056.00
1542.79,4066.00
1544.65,4087.00
1546.50,4098.00
1548.36,4066.00
1550.21,4013.00
1552.06,3992.00
1553.91,4024.00
1555.76,3981.00
1557.61,3929.00
1559.45,3971.00
1561.30,3897.00
1563.14,3949.00
1564.98,3971.00
1566.82,3928.00
1568.67,3971.00
1570.50,3876.00
1572.34,3886.00
1574.18,3875.00
1576.01,3822.00
1577.85,3822.00
1579.68,3802.00
1581.51,3759.00
1583.34,3801.00
1585.17,3865.00
1587.00,3791.00
1588.82,3675.00
1590.65,3653.00
1592.47,3675.00
1594.30,3717.00
1596.12,3728.00
1597.94,3695.00
1599.76,3643.00
1601.57,3653.00
1603.39,3632.00
1605.21,3653.00
1607.02,3675.00
1608.83,3695.00
1610.64,3674.00
1612.45,3643.00
1614.26,3622.00
1616.07,3611.00
1617.88,3579.00
1619.68,3548.00
1621.49,3495.00
1623.29,3410.00
1625.09,3515.00
1626.89,3558.00
1628.69,3548.00
1630.49,3495.00
1632.29,3484.00
1634.08,3421.00
1635.88,3431.00
1637.67,3505.00
1639.46,3579.00
1641.25,3484.00
1643.04,3389.00
1644.83,3399.00
1646.62,3431.00
1648.41,3462.00
1650.19,3420.00
1651.97,3357.00
1653.76,3335.00
1655.54,3346.00
1657.32,3304.00
1659.10,3325.00
1660.88,3356.00
1662.65,3261.00
1664.43,3240.00
1666.20,3272.00
1667.97,3293.00
1669.75,3293.00
1671.52,3283.00
1673.29,3315.00
1675.05,3293.00
1676.82,3273.00
1678.59,3283.00
1680.35,3262.00
1682.11,3198.00
1683.88,3187.00
1685.64,3166.00
1687.40,3166.00
1689.16,3145.00
1690.91,3071.00
1692.67,3092.00
1694.42,3082.00
1696.18,3082.00
1697.93,3082.00
1699.68,3018.00
1701.43,2965.00
1703.18,3028.00
1704.93,3050.00
1706.68,3039.00
1708.42,3028.00
1710.17,2986.00
1711.91,2944.00
1713.65,2933.00
1715.39,2965.00
1717.13,2965.00
1718.87,2965.00
1720.61,2922.00
1722.35,2976.00
1724.08,2986.00
1725.81,2912.00
1727.55,2944.00
1729.28,2955.00
1731.01,2912.00
1732.74,2806.00
1734.47,2827.00
1736.19,2817.00
1737.92,2806.00
1739.64,2817.00
1741.37,2838.00
1743.09,2795.00
1744.81,2742.00
1746.53,2732.00
1748.25,2775.00
1749.97,2775.00
1751.68,2774.00
1753.40,2743.00
1755.11,2711.00
1756.83,2711.00
1758.54,2732.00
1760.25,2796.00
1761.96,2775.00
1763.67,2817.00
1765.38,2785.00
1767.08,2732.00
1768.79,2711.00
1770.49,2721.00
1772.19,2775.00
1773.90,2711.00
1775.60,2669.00
1777.30,2700.00
1778.99,2648.00
1780.69,2669.00
1782.39,2668.00
1784.08,2647.00
1785.78,2605.00
1787.47,2636.00
1789.16,2658.00
1790.85,2637.00
1792.54,2605.00
1794.23,2605.00
1795.91,2573.00
1797.60,2542.00
1799.28,2573.00
1800.97,2627.00
1802.65,2542.00
1804.33,2509.00
1806.01,2541.00
1807.69,2521.00
1809.37,2520.00
1811.05,2478.00
1812.72,2415.00
1814.40,2478.00
1816.07,2510.00
1817.74,2478.00
1819.41,2520.00
1821.08,2595.00
1822.75,2499.00
1824.42,2425.00
1826.09,2415.00
1827.75,2456.00
1829.42,2415.00
1831.08,2436.00
1832.74,2499.00
1834.40,2499.00
1836.06,2489.00
1837.72,2435.00
1839.38,2372.00
1841.04,2340.00
1842.69,2404.00
1844.35,2499.00
1846.00,2457.00
1847.65,2414.00
1849.30,2415.00
1850.95,2425.00
1852.60,2372.00
1854.25,2414.00
1855.90,2393.00
1857.54,2329.00
1859.19,2329.00
1860.83,2309.00
1862.47,2319.00
1864.12,2298.00
1865.76,2255.00
1867.40,2309.00
1869.03,2297.00
1870.67,2266.00
1872.31,2266.00
1873.94,2255.00
1875.57,2245.00
1877.21,2266.00
1878.84,2245.00
1880.47,2213.00
1882.10,2266.00
1883.73,2235.00
1885.35,2181.00
1886.98,2213.00
1888.61,2255.00
1890.23,2245.00
1891.85,2245.00
1893.47,2181.00
1895.09,2149.00
1896.71,2086.00
1898.33,2118.00
1899.95,2108.00
1901.57,2118.00
1903.18,2118.00
1904.80,2118.00
1906.41,2097.00
1908.02,2149.00
1909.63,2181.00
1911.24,2149.00
1912.85,2139.00
1914.46,2150.00
1916.07,2128.00
1917.67,2086.00
1919.28,2023.00
1920.88,2086.00
1922.48,2075.00
1924.08,2033.00
1925.68,1991.00
1927.28,2012.00
1928.88,2086.00
1930.48,2075.00
1932.07,2001.00
1933.67,1949.00
1935.26,2054.00
1936.86,2076.00
1938.45,1991.00
1940.04,2055.00
1941.63,2002.00
1943.22,2001.00
1944.80,1991.00
1946.39,2012.00
1947.98,1991.00
1949.56,2002.00
1951.14,2002.00
1952.73,1991.00
1954.31,1927.00
1955.89,1959.00
1957.47,1991.00
1959.05,1884.00
1960.62,1917.00
1962.20,1948.00
1963.77,1885.00
1965.35,1874.00
1966.92,1906.00
1968.49,1885.00
1970.06,1948.00
1971.63,1927.00
1973.20,1917.00
1974.77,1917.00
1976.34,1895.00
1977.90,1895.00
1979.47,1927.00
1981.03,1885.00
1982.59,1842.00
1984.15,1864.00
1985.71,1906.00
1987.27,1948.00
1988.83,1874.00
1990.39,1821.00
1991.94,1906.00
1993.50,1853.00
1995.05,1843.00
1996.61,1800.00
1998.16,1843.00
1999.71,1864.00
2001.26,1853.00
2002.81,1853.00
2004.36,1864.00
2005.91,1810.00
2007.45,1748.00
2009.00,1769.00
2010.54,1800.00
2012.08,1779.00
2013.62,1821.00
2015.17,1810.00
2016.71,1789.00
2018.24,1737.00
2019.78,1789.00
2021.32,1800.00
2022.85,1821.00
2024.39,1747.00
2025.92,1779.00
2027.46,1779.00
2028.99,1769.00
2030.52,1716.00
2032.05,1758.00
2033.58,1758.00
2035.10,1737.00
2036.63,1758.00
2038.16,1695.00
2039.68,1715.00
2041.21,1758.00
2042.73,1769.00
2044.25,1673.00
2045.77,1652.00
2047.29,1631.00
2048.81,1705.00
2050.33,1652.00
2051.84,1631.00
2053.36,1673.00
2054.87,1631.00
2056.39,1620.00
2057.90,1662.00
2059.41,1673.00
2060.92,1673.00
2062.43,1673.00
2063.94,1652.00
2065.45,1631.00
2066.95,1599.00
2068.46,1631.00
2069.96,1610.00
2071.47,1578.00
2072.97,1589.00
2074.47,1589.00
2075.97,1610.00
2077.47,1588.00
2078.97,1631.00
2080.47,1568.00
2081.96,1546.00
2083.46,1504.00
2084.95,1514.00
2086.45,1525.00
2087.94,1525.00
2089.43,1504.00
2090.92,1514.00
2092.41,1514.00
2093.90,1482.00
2095.39,1515.00
2096.88,1471.00
2098.36,1430.00
2099.85,1504.00
2101.33,1515.00
2102.81,1377.00
2104.30,1419.00
2105.78,1546.00
2107.26,1514.00
2108.74,1430.00
2110.21,1483.00
2111.69,1461.00
2113.17,1429.00
2114.64,1451.00
2116.12,1408.00
2117.59,1409.00
2119.06,1450.00
2120.53,1430.00
2122.00,1388.00
2123.47,1440.00
2124.94,1419.00
2126.41,1430.00
2127.87,1377.00
2129.34,1366.00
2130.80,1345.00
2132.27,1376.00
2133.73,1345.00
2135.19,1260.00
2136.65,1292.00
2138.11,1313.00
2139.57,1271.00
2141.03,1313.00
2142.48,1355.00
2143.94,1345.00
2145.39,1324.00
2146.85,1345.00
2148.30,1313.00
2149.75,1324.00
2151.20,1324.00
2152.65,1292.00
2154.10,1260.00
2155.55,1282.00
2157.00,1345.00
2158.44,1292.00
2159.89,1282.00
2161.33,1345.00
2162.78,1355.00
2164.22,1260.00
2165.66,1292.00
2167.10,1303.00
2168.54,1292.00
2169.98,1292.00
2171.42,1323.00
2172.85,1334.00
2174.29,1292.00
2175.72,1260.00
2177.16,1271.00
2178.59,1281.00
2180.02,1334.00
2181.45,1292.00
2182.88,1250.00
2184.31,1271.00
2185.74,1281.00
2187.17,1186.00
2188.59,1176.00
2190.02,1207.00
2191.44,1271.00
2192.87,1186.00
2194.29,1144.00
2195.71,1186.00
2197.13,1186.00
2198.55,1186.00
2199.97,1228.00
2201.39,1250.00
2202.81,1239.00
2204.22,1229.00
2205.64,1197.00
2207.05,1165.00
2208.46,1186.00
2209.88,1207.00
2211.29,1207.00
2212.70,1186.00
2214.11,1175.00
2215.52,1208.00
2216.92,1186.00
2218.33,1186.00
2219.74,1208.00
2221.14,1143.00
2222.54,1186.00
2223.95,1207.00
2225.35,1165.00
2226.75,1239.00
2228.15,1186.00
2229.55,1165.00
2230.95,1218.00
2232.35,1186.00
2233.74,1186.00
2235.14,1122.00
2236.53,1122.00
2237.93,1165.00
2239.32,1186.00
2240.71,1186.00
2242.10,1133.00
2243.49,1144.00
2244.88,1048.00
2246.27,1080.00
2247.66,1070.00
2249.04,1123.00
2250.43,1122.00
2251.81,1080.00
2253.20,1059.00
2254.58,1123.00
2255.96,1059.00
2257.34,974.00
2258.72,1059.00
2260.10,1069.00
2261.48,1037.00
2262.86,1080.00
2264.23,1027.00
2265.61,1037.00
2266.98,1059.00
2268.36,1059.00
2269.73,1016.00
2271.10,1017.00
2272.47,1027.00
2273.84,1017.00
2275.21,1027.00
2276.58,1027.00
2277.95,1070.00
2279.31,1038.00
2280.68,995.00
2282.05,995.00
2283.41,1017.00
2284.77,996.00
2286.13,995.00
2287.50,974.00
2288.86,1038.00
2290.22,942.00
2291.57,878.00
2292.93,890.00
2294.29,932.00
2295.64,1016.00
2297.00,995.00
2298.35,963.00
2299.71,974.00
2301.06,953.00
2302.41,995.00
2303.76,964.00
2305.11,974.00
2306.46,942.00
2307.81,932.00
2309.15,932.00
2310.50,953.00
2311.84,942.00
2313.19,931.00
2314.53,922.00
2315.87,922.00
2317.22,932.00
2318.56,953.00
2319.90,932.00
2321.24,911.00
2322.57,879.00
2323.91,932.00
2325.25,911.00
2326.58,911.00
2327.92,857.00
2329.25,879.00
2330.58,911.00
2331.91,890.00
2333.25,847.00
2334.58,847.00
2335.90,911.00
2337.23,889.00
2338.56,890.00
2339.89,879.00
2341.21,911.00
2342.54,900.00
2343.86,857.00
2345.19,890.00
2346.51,922.00
2347.83,836.00
2349.15,815.00
2350.47,868.00
2351.79,858.00
2353.11,847.00
2354.42,868.00
2355.74,847.00
2357.06,847.00
2358.37,826.00
2359.68,857.00
2361.00,826.00
2362.31,826.00
2363.62,868.00
2364.93,868.00
2366.24,847.00
2367.55,869.00
2368.86,837.00
2370.16,826.00
2371.47,858.00
2372.77,858.00
2374.08,847.00
2375.38,805.00
2376.68,794.00
2377.98,847.00
2379.29,900.00
2380.59,836.00
2381.88,784.00
2383.18,784.00
2384.48,762.00
2385.78,794.00
2387.07,763.00
2388.37,773.00
2389.66,804.00
2390.95,773.00
2392.25,762.00
2393.54,826.00
2394.83,794.00
2396.12,783.00
2397.41,762.00
2398.70,742.00
2399.98,742.00
2401.27,762.00
2402.55,762.00
2403.84,762.00
2405.12,720.00
2406.41,699.00
2407.69,677.00
2408.97,731.00
2410.25,763.00
2411.53,741.00
2412.81,773.00
2414.09,763.00
2415.36,731.00
2416.64,741.00
2417.91,720.00
2419.19,688.00
2420.46,752.00
2421.74,741.00
2423.01,720.00
2424.28,731.00
2425.55,741.00
2426.82,698.00
2428.09,741.00
2429.36,699.00
2430.62,699.00
2431.89,710.00
2433.15,678.00
2434.42,730.00
2435.68,741.00
2436.94,720.00
2438.21,677.00
2439.47,656.00
2440.73,688.00
2441.99,710.00
2443.25,710.00
2444.51,688.00
2445.76,667.00
2447.02,720.00
2448.27,720.00
2449.53,720.00
2450.78,742.00
2452.03,667.00
2453.29,635.00
2454.54,635.00
2455.79,709.00
2457.04,688.00
2458.29,688.00
2459.54,710.00
2460.78,593.00
2462.03,614.00
2463.27,582.00
2464.52,625.00
2465.76,688.00
2467.01,710.00
2468.25,656.00
2469.49,625.00
2470.73,656.00
2471.97,646.00
2473.21,604.00
2474.45,646.00
2475.69,635.00
2476.92,604.00
2478.16,636.00
2479.39,614.00
2480.63,593.00
2481.86,603.00
2483.09,604.00
2484.32,593.00
2485.56,593.00
2486.79,593.00
2488.02,562.00
2489.24,625.00
2490.47,678.00
2491.70,614.00
2492.92,615.00
2494.15,614.00
2495.37,604.00
2496.60,571.00
2497.82,593.00
2499.04,603.00
2500.26,593.00
2501.48,593.00
2502.70,603.00
2503.92,540.00
2505.14,498.00
2506.36,540.00
2507.58,572.00
2508.79,572.00
2510.01,519.00
2511.22,519.00
2512.43,540.00
2513.64,572.00
2514.86,593.00
2516.07,572.00
2517.28,572.00
2518.49,550.00
2519.70,540.00
2520.90,529.00
2522.11,593.00
2523.32,603.00
2524.52,561.00
2525.73,529.00
2526.93,562.00
2528.13,593.00
2529.33,572.00
2530.54,562.00
2531.74,530.00
2532.94,551.00
2534.14,582.00
2535.33,540.00
2536.53,508.00
2537.73,530.00
2538.92,572.00
2540.12,550.00
2541.31,562.00
2542.51,529.00
2543.70,529.00
2544.89,540.00
2546.08,509.00
2547.27,509.00
2548.46,540.00
2549.65,530.00
2550.84,487.00
2552.03,487.00
2553.21,540.00
2554.40,508.00
2555.58,466.00
2556.77,561.00
2557.95,530.00
2559.13,456.00
2560.31,488.00
2561.50,518.00
2562.68,530.00
2563.85,487.00
2565.03,508.00
2566.21,509.00
2567.39,445.00
2568.56,445.00
2569.74,466.00
2570.91,435.00
2572.09,477.00
2573.26,498.00
2574.43,487.00
2575.61,466.00
2576.78,477.00
2577.95,487.00
2579.12,466.00
2580.29,466.00
2581.45,434.00
2582.62,477.00
2583.79,519.00
2584.95,424.00
2586.12,434.00
2587.28,476.00
2588.44,529.00
2589.61,444.00
2590.77,402.00
2591.93,424.00
2593.09,456.00
2594.25,456.00
2595.41,476.00
2596.56,455.00
2597.72,455.00
2598.88,476.00
2600.03,466.00
2601.19,508.00
2602.34,445.00
2603.50,424.00
2604.65,455.00
2605.80,413.00
2606.95,423.00
2608.10,434.00
2609.25,392.00
2610.40,402.00
2611.55,413.00
2612.70,423.00
2613.84,445.00
2614.99,445.00
2616.13,455.00
2617.28,403.00
2618.42,424.00
2619.56,423.00
2620.71,382.00
2621.85,392.00
2622.99,466.00
2624.13,444.00
2625.27,403.00
2626.40,413.00
2627.54,445.00
2628.68,402.00
2629.81,402.00
2630.95,371.00
2632.08,403.00
2633.22,424.00
2634.35,455.00
2635.48,402.00
2636.61,413.00
2637.74,445.00
2638.87,360.00
2640.00,371.00
2641.13,413.00
2642.26,402.00
2643.39,329.00
2644.51,349.00
2645.64,444.00
2646.76,402.00
2647.89,370.00
2649.01,434.00
2650.13,424.00
2651.25,424.00
2652.38,392.00
2653.50,360.00
2654.62,402.00
2655.73,466.00
2656.85,403.00
2657.97,360.00
2659.09,382.00
2660.20,360.00
2661.32,403.00
2662.43,423.00
2663.55,434.00
2664.66,424.00
2665.77,413.00
2666.88,424.00
2667.99,371.00
2669.10,339.00
2670.21,392.00
2671.32,381.00
2672.43,381.00
2673.54,392.00
2674.64,360.00
2675.75,339.00
2676.85,360.00
2677.96,382.00
2679.06,413.00
2680.16,360.00
2681.26,360.00
2682.37,329.00
2683.47,317.00
2684.57,339.00
2685.66,371.00
2686.76,318.00
2687.86,318.00
2688.96,392.00
2690.05,371.00
2691.15,350.00
2692.24,318.00
2693.34,308.00
2694.43,371.00
2695.52,360.00
2696.62,328.00
2697.71,339.00
2698.80,318.00
2699.89,329.00
2700.98,297.00
2702.06,317.00
2703.15,307.00
2704.24,307.00
2705.32,349.00
2706.41,349.00
2707.49,339.00
2708.58,339.00
2709.66,296.00
2710.74,296.00
2711.83,318.00
2712.91,286.00
2713.99,297.00
2715.07,307.00
2716.15,360.00
2717.22,360.00
2718.30,339.00
2719.38,339.00
2720.45,286.00
2721.53,264.00
2722.60,339.00
2723.68,318.00
2724.75,328.00
2725.82,275.00
2726.89,276.00
2727.97,339.00
2729.04,329.00
2730.11,286.00
2731.17,276.00
2732.24,285.00
2733.31,297.00
2734.38,297.00
2735.44,286.00
2736.51,350.00
2737.57,360.00
2738.64,328.00
2739.70,328.00
2740.76,360.00
2741.82,350.00
2742.89,318.00
2743.95,328.00
2745.01,360.00
2746.07,317.00
2747.12,276.00
2748.18,318.00
2749.24,339.00
2750.29,338.00
2751.35,286.00
2752.40,297.00
2753.46,275.00
2754.51,307.00
2755.57,349.00
2756.62,328.00
2757.67,286.00
2758.72,286.00
2759.77,297.00
2760.82,286.00
2761.87,254.00
2762.91,276.00
2763.96,276.00
2765.01,307.00
2766.05,275.00
2767.10,254.00
2768.14,318.00
2769.19,286.00
2770.23,286.00
2771.27,264.00
2772.31,254.00
2773.35,254.00
2774.40,264.00
2775.43,243.00
2776.47,233.00
2777.51,264.00
2778.55,275.00
2779.59,296.00
2780.62,328.00
2781.66,339.00
2782.69,286.00
2783.73,254.00
2784.76,243.00
2785.79,296.00
2786.82,296.00
2787.85,286.00
2788.89,297.00
2789.92,233.00
2790.94,180.00
2791.97,190.00
2793.00,255.00
2794.03,276.00
2795.05,233.00
2796.08,222.00
2797.11,254.00
2798.13,233.00
2799.15,265.00
2800.18,297.00
2801.20,244.00
2802.22,254.00
2803.24,254.00
2804.26,223.00
2805.28,286.00
2806.30,255.00
2807.32,201.00
2808.34,211.00
2809.35,222.00
2810.37,212.00
2811.39,255.00
2812.40,244.00
2813.41,244.00
2814.43,243.00
2815.44,95.00
2816.45,-646.00
2817.46,-561.00
2818.48,74.00
2819.49,244.00
2820.49,222.00
2821.50,191.00
2822.51,180.00
2823.52,212.00
2824.53,254.00
2825.53,254.00
2826.54,275.00
2827.54,233.00
2828.55,222.00
2829.55,233.00
2830.55,180.00
2831.55,180.00
2832.56,191.00
2833.56,232.00
2834.56,212.00
2835.56,201.00
2836.56,201.00
2837.55,212.00
2838.55,222.00
2839.55,222.00
2840.54,223.00
2841.54,202.00
2842.53,254.00
2843.53,201.00
2844.52,212.00
2845.51,211.00
2846.51,233.00
2847.50,212.00
2848.49,190.00
2849.48,127.00
2850.47,169.00
2851.46,159.00
2852.45,191.00
2853.43,170.00
2854.42,191.00
2855.41,223.00
2856.39,201.00
2857.38,222.00
2858.36,233.00
2859.34,212.00
2860.33,202.00
2861.31,254.00
2862.29,233.00
2863.27,191.00
2864.25,190.00
2865.23,190.00
2866.21,212.00
2867.19,148.00
2868.17,190.00
2869.14,191.00
2870.12,191.00
2871.09,201.00
2872.07,254.00
2873.04,233.00
2874.02,170.00
2874.99,170.00
2875.96,180.00
2876.93,149.00
2877.91,137.00
2878.88,169.00
2879.85,159.00
2880.82,190.00
2881.78,180.00
2882.75,222.00
2883.72,201.00
2884.69,169.00
2885.65,148.00
2886.62,158.00
2887.58,159.00
2888.55,180.00
2889.51,201.00
2890.47,201.00
2891.43,148.00
2892.39,148.00
2893.36,201.00
2894.31,190.00
2895.27,201.00
2896.23,233.00
2897.19,190.00
2898.15,169.00
2899.11,191.00
2900.06,191.00
2901.02,201.00
2901.97,265.00
2902.93,233.00
2903.88,169.00
2904.83,190.00
2905.79,180.00
2906.74,170.00
2907.69,201.00
2908.64,202.00
2909.59,233.00
2910.54,191.00
2911.49,180.00
2912.43,212.00
2913.38,159.00
2914.33,180.00
2915.27,233.00
2916.22,202.00
2917.16,190.00
2918.11,191.00
2919.05,180.00
2919.99,191.00
2920.94,212.00
2921.88,180.00
2922.82,170.00
2923.76,212.00
2924.70,233.00
2925.64,212.00
2926.58,212.00
2927.51,170.00
2928.45,191.00
2929.39,190.00
2930.32,138.00
2931.26,149.00
2932.19,170.00
2933.13,222.00
2934.06,233.00
2934.99,212.00
2935.92,180.00
2936.86,170.00
2937.79,180.00
2938.72,202.00
2939.65,212.00
2940.57,169.00
2941.50,170.00
2942.43,170.00
2943.36,180.00
2944.28,170.00
2945.21,127.00
2946.13,180.00
2947.06,180.00
2947.98,223.00
2948.91,233.00
2949.83,201.00
2950.75,169.00
2951.67,170.00
2952.59,190.00
2953.51,233.00
2954.43,191.00
2955.35,170.00
2956.27,170.00
2957.19,159.00
2958.10,169.00
2959.02,149.00
2959.94,180.00
2960.85,169.00
2961.77,148.00
2962.68,170.00
2963.59,169.00
2964.51,212.00
2965.42,190.00
2966.33,138.00
2967.24,190.00
2968.15,148.00
2969.06,106.00
2969.97,148.00
2970.88,202.00
2971.78,169.00
2972.69,148.00
2973.60,190.00
2974.50,212.00
2975.41,180.00
2976.31,222.00
2977.22,233.00
2978.12,127.00
2979.02,148.00
2979.93,158.00
2980.83,169.00
2981.73,190.00
2982.63,149.00
2983.53,148.00
2984.43,148.00
2985.33,148.00
2986.22,116.00
2987.12,148.00
2988.02,180.00
2988.91,127.00
2989.81,148.00
2990.70,127.00
2991.60,127.00
2992.49,116.00
2993.38,137.00
2994.28,170.00
2995.17,222.00
2996.06,159.00
2996.95,148.00
2997.84,106.00
2998.73,138.00
2999.62,158.00
3000.51,148.00
3001.40,137.00
3002.28,148.00
3003.17,85.00
3004.05,64.00
3004.94,84.00
3005.82,85.00
3006.71,95.00
3007.59,148.00
3008.47,116.00
3009.36,117.00
3010.24,127.00
3011.12,106.00
3012.00,63.00
3012.88,53.00
3013.76,63.00
3014.64,106.00
3015.51,116.00
3016.39,159.00
3017.27,117.00
3018.14,137.00
3019.02,159.00
3019.89,127.00
3020.77,95.00
3021.64,106.00
3022.52,127.00
3023.39,106.00
3024.26,127.00
3025.13,137.00
3026.00,127.00
3026.87,127.00
3027.74,64.00
3028.61,42.00
3029.48,53.00
3030.35,106.00
3031.21,127.00
3032.08,95.00
3032.95,64.00
3033.81,74.00
3034.68,138.00
3035.54,116.00
3036.40,84.00
3037.27,95.00
3038.13,106.00
3038.99,137.00
3039.85,138.00
3040.71,127.00
3041.57,159.00
3042.43,149.00
3043.29,127.00
3044.15,127.00
3045.01,53.00
3045.86,43.00
3046.72,74.00
3047.58,85.00
3048.43,85.00
3049.29,74.00
3050.14,64.00
3050.99,42.00
3051.85,63.00
3052.70,95.00
3053.55,117.00
3054.40,116.00
3055.25,138.00
3056.10,106.00
3056.95,85.00
3057.80,95.00
3058.65,64.00
3059.50,11.00
3060.34,106.00
3061.19,117.00
3062.04,84.00
3062.88,85.00
3063.73,85.00
3064.57,106.00
3065.42,127.00
3066.26,148.00
3067.10,106.00
3067.94,74.00
3068.78,106.00
3069.63,53.00
3070.47,21.00
3071.31,63.00
3072.14,85.00
3072.98,84.00
3073.82,116.00
3074.66,85.00
3075.49,63.00
3076.33,10.00
3077.17,52.00
3078.00,32.00
3078.83,85.00
3079.67,95.00
3080.50,138.00
3081.33,117.00
3082.17,95.00
3083.00,84.00
3083.83,63.00
3084.66,42.00
3085.49,84.00
3086.32,42.00
3087.15,53.00
3087.97,85.00
3088.80,95.00
3089.63,85.00
3090.46,95.00
3091.28,85.00
3092.11,116.00
3092.93,159.00
3093.75,138.00
3094.58,63.00
3095.40,95.00
3096.22,42.00
3097.05,53.00
3097.87,52.00
3098.69,42.00
3099.51,74.00
3100.33,106.00
3101.15,106.00
3101.96,74.00
3102.78,95.00
3103.60,85.00
3104.42,64.00
3105.23,85.00
3106.05,85.00
3106.86,74.00
3107.68,138.00
3108.49,85.00
3109.30,74.00
3110.12,84.00
3110.93,64.00
3111.74,32.00
3112.55,53.00
3113.36,85.00
3114.17,63.00
3114.98,63.00
3115.79,105.00
3116.60,85.00
3117.40,117.00
3118.21,84.00
3119.02,52.00
3119.82,106.00
3120.63,138.00
3121.43,106.00
3122.24,32.00
3123.04,64.00
3123.84,74.00
3124.65,21.00
3125.45,0.00
3126.25,0.00
3127.05,53.00
3127.85,117.00
3128.65,138.00
3129.45,169.00
3130.25,64.00
3131.05,53.00
3131.84,64.00
3132.64,63.00
3133.44,64.00
3134.23,74.00
3135.03,42.00
3135.82,42.00
3136.62,64.00
3137.41,95.00
3138.20,116.00
3139.00,84.00
3139.79,85.00
3140.58,63.00
3141.37,105.00
3142.16,85.00
3142.95,84.00
3143.74,85.00
3144.53,74.00
3145.32,74.00
3146.10,96.00
3146.89,43.00
3147.68,31.00
3148.46,84.00
3149.25,74.00
3150.03,95.00
3150.82,95.00
3151.60,84.00
3152.38,95.00
3153.17,63.00
3153.95,85.00
3154.73,96.00
3155.51,64.00
3156.29,116.00
3157.07,117.00
3157.85,85.00
3158.63,53.00
3159.41,21.00
3160.18,74.00
3160.96,74.00
3161.74,42.00
3162.51,74.00
3163.29,64.00
3164.06,85.00
3164.84,85.00
3165.61,106.00
3166.38,63.00
3167.16,21.00
3167.93,43.00
3168.70,84.00
3169.47,116.00
3170.24,75.00
3171.01,63.00
3171.78,32.00
3172.55,85.00
3173.32,53.00
3174.09,21.00
3174.85,53.00
3175.62,52.00
3176.39,21.00
3177.15,42.00
3177.92,53.00
3178.68,21.00
3179.45,95.00
3180.21,42.00
3180.97,22.00
3181.73,53.00
3182.50,0.00
3183.26,21.00
3184.02,53.00
3184.78,53.00
3185.54,85.00
3186.30,63.00
3187.05,43.00
3187.81,22.00
3188.57,21.00
3189.33,85.00
3190.08,74.00
3190.84,74.00
3191.59,74.00
3192.35,85.00
3193.10,64.00
3193.86,32.00
3194.61,10.00
3195.36,64.00
3196.12,127.00
3196.87,116.00
3197.62,63.00
3198.37,32.00
3199.12,63.00
3199.87,85.00
3200.62,42.00
3201.36,85.00
3202.11,85.00
3202.86,53.00
3203.61,53.00
3204.35,85.00
3205.10,85.00
3205.84,21.00
3206.59,64.00
3207.33,75.00
3208.08,53.00
3208.82,84.00
3209.56,53.00
3210.30,53.00
3211.05,74.00
3211.79,84.00
3212.53,22.00
3213.27,0.00
3214.01,42.00
3214.75,63.00
3215.48,53.00
3216.22,42.00
3216.96,64.00
3217.69,117.00
3218.43,116.00
3219.17,95.00
3219.90,85.00
3220.64,85.00
3221.37,85.00
3222.10,74.00
3222.84,74.00
3223.57,85.00
3224.30,32.00
3225.03,31.00
3225.76,63.00
3226.49,32.00
3227.22,63.00
3227.95,84.00
3228.68,53.00
3229.41,-43.00
3230.14,-21.00
3230.87,64.00
3231.59,64.00
3232.32,0.00
3233.04,74.00
3233.77,74.00
3234.49,63.00
3235.22,0.00
3235.94,43.00
3236.66,106.00
3237.39,127.00
3238.11,63.00
3238.83,84.00
3239.55,53.00
3240.27,53.00
3240.99,85.00
3241.71,64.00
3242.43,74.00
3243.15,64.00
3243.87,95.00
3244.58,64.00
3245.30,0.00
3246.02,21.00
3246.73,11.00
3247.45,11.00
3248.16,53.00
3248.88,11.00
3249.59,11.00
3250.30,52.00
3251.01,42.00
3251.73,74.00
3252.44,64.00
3253.15,32.00
3253.86,-11.00
3254.57,-21.00
3255.28,0.00
3255.99,0.00
3256.70,0.00
3257.41,31.00
3258.11,11.00
3258.82,-63.00
3259.53,-74.00
3260.23,21.00
3260.94,95.00
3261.64,64.00
3262.35,53.00
3263.05,21.00
3263.76,53.00
3264.46,84.00
3265.16,85.00
3265.86,-10.00
3266.56,-11.00
3267.26,0.00
3267.97,32.00
3268.67,63.00
3269.36,0.00
3270.06,43.00
3270.76,53.00
3271.46,63.00
3272.16,32.00
3272.85,0.00
