RamanShift,Intensity
180.91,429.00
183.74,593.00
186.56,816.00
189.39,1111.00
192.21,1589.00
195.03,2425.00
197.84,3632.00
200.66,5400.00
203.47,7423.00
206.28,9287.00
209.09,11139.00
211.89,13056.00
214.70,14560.00
217.50,15904.00
220.30,16731.00
223.10,17461.00
225.89,18160.00
228.69,18616.00
231.48,19156.00
234.27,19388.00
237.05,19579.00
239.84,19559.00
242.62,19081.00
245.40,18425.00
248.18,17737.00
250.96,17028.00
253.73,16233.00
256.51,15333.00
259.28,14549.00
262.05,13861.00
264.81,13268.00
267.58,12665.00
270.34,12178.00
273.10,11871.00
275.86,11595.00
278.61,11436.00
281.37,11310.00
284.12,11299.00
286.87,11119.00
289.62,11023.00
292.36,10960.00
295.11,11002.00
297.85,10896.00
300.59,10780.00
303.33,10907.00
306.06,11055.00
308.80,11045.00
311.53,10991.00
314.26,10928.00
316.99,10896.00
319.71,10865.00
322.44,10791.00
325.16,10886.00
327.88,11013.00
330.59,10907.00
333.31,10843.00
336.02,10758.00
338.73,10706.00
341.44,10684.00
344.15,10536.00
346.86,10484.00
349.56,10473.00
352.26,10504.00
354.96,10494.00
357.66,10441.00
360.35,10536.00
363.05,10568.00
365.74,10494.00
368.43,10536.00
371.12,10685.00
373.80,10876.00
376.48,11012.00
379.17,11045.00
381.85,11045.00
384.52,10970.00
387.20,10971.00
389.87,11023.00
392.54,11182.00
395.21,11171.00
397.88,11098.00
400.55,11098.00
403.21,11002.00
405.87,10897.00
408.53,10801.00
411.19,10865.00
413.84,10939.00
416.50,10876.00
419.15,10865.00
421.80,10928.00
424.45,10939.00
427.10,10843.00
429.74,10822.00
432.38,10886.00
435.02,10992.00
437.66,11140.00
440.30,11151.00
442.93,10981.00
445.56,10770.00
448.19,10907.00
450.82,11002.00
453.45,10939.00
456.07,10907.00
458.70,10907.00
461.32,11087.00
463.94,11140.00
466.55,11066.00
469.17,11140.00
471.78,11108.00
474.39,11087.00
477.00,11098.00
479.61,11182.00
482.22,11224.00
484.82,11023.00
487.42,10971.00
490.02,10949.00
492.62,11012.00
495.21,11055.00
497.81,10992.00
500.40,10876.00
502.99,10822.00
505.58,10907.00
508.17,10854.00
510.75,10843.00
513.33,10918.00
515.91,10907.00
518.49,10907.00
521.07,10875.00
523.65,10980.00
526.22,10971.00
528.79,10886.00
531.36,10886.00
533.93,10928.00
536.49,10885.00
539.06,10906.00
541.62,10950.00
544.18,10971.00
546.74,11012.00
549.30,11002.00
551.85,10928.00
554.40,10928.00
556.95,10928.00
559.50,10918.00
562.05,10832.00
564.59,10779.00
567.14,10748.00
569.68,10737.00
572.22,10706.00
574.76,10652.00
577.29,10716.00
579.83,10716.00
582.36,10504.00
584.89,10494.00
587.42,10494.00
589.95,10441.00
592.47,10462.00
594.99,10484.00
597.52,10314.00
600.04,10314.00
602.55,10494.00
605.07,10483.00
607.58,10473.00
610.09,10462.00
612.60,10314.00
615.11,10410.00
617.62,10526.00
620.12,10431.00
622.63,10356.00
625.13,10240.00
627.63,10219.00
630.13,10272.00
632.62,10144.00
635.12,10198.00
637.61,10197.00
640.10,10007.00
642.59,9943.00
645.07,9912.00
647.56,9827.00
650.04,9742.00
652.52,9699.00
655.00,9668.00
657.48,9763.00
659.96,9847.00
662.43,9805.00
664.90,9689.00
667.37,9784.00
669.84,9753.00
672.31,9689.00
674.78,9721.00
677.24,9742.00
679.70,9774.00
682.16,9721.00
684.62,9668.00
687.08,9626.00
689.53,9689.00
691.98,9647.00
694.43,9594.00
696.88,9583.00
699.33,9541.00
701.78,9594.00
704.22,9636.00
706.66,9499.00
709.10,9424.00
711.54,9520.00
713.98,9774.00
716.42,9943.00
718.85,10303.00
721.28,10769.00
723.71,11341.00
726.14,11785.00
728.57,12114.00
730.99,12103.00
733.41,11966.00
735.83,11701.00
738.25,11320.00
740.67,10918.00
743.09,10377.00
745.50,9795.00
747.91,9467.00
750.33,9138.00
752.73,8969.00
755.14,8874.00
757.55,8863.00
759.95,8905.00
762.35,8969.00
764.75,8948.00
767.15,8916.00
769.55,8884.00
771.95,8905.00
774.34,8853.00
776.73,8757.00
779.12,8736.00
781.51,8820.00
783.90,8757.00
786.28,8799.00
788.67,8736.00
791.05,8757.00
793.43,8757.00
795.80,8715.00
798.18,8683.00
800.56,8651.00
802.93,8672.00
805.30,8609.00
807.67,8514.00
810.04,8461.00
812.40,8557.00
814.77,8684.00
817.13,8609.00
819.49,8429.00
821.85,8207.00
824.21,8206.00
826.57,8354.00
828.92,8217.00
831.27,8037.00
833.63,8164.00
835.98,8143.00
838.32,8217.00
840.67,8260.00
843.01,8186.00
845.36,8080.00
847.70,8037.00
850.04,8005.00
852.37,7995.00
854.71,8037.00
857.05,8016.00
859.38,7900.00
861.71,7888.00
864.04,7825.00
866.37,7825.00
868.69,7815.00
871.02,7826.00
873.34,7825.00
875.66,7921.00
877.98,7942.00
880.30,7889.00
882.62,7847.00
884.93,7720.00
887.24,7677.00
889.55,7720.00
891.86,7699.00
894.17,7677.00
896.48,7730.00
898.78,7677.00
901.09,7634.00
903.39,7698.00
905.69,7708.00
907.99,7624.00
910.28,7603.00
912.58,7741.00
914.87,7698.00
917.16,7592.00
919.45,7635.00
921.74,7634.00
924.03,7582.00
926.31,7518.00
928.60,7550.00
930.88,7572.00
933.16,7475.00
935.44,7455.00
937.72,7592.00
939.99,7625.00
942.26,7444.00
944.54,7466.00
946.81,7582.00
949.08,7730.00
951.34,7805.00
953.61,7804.00
955.87,7878.00
958.14,7847.00
960.40,7635.00
962.66,7529.00
964.92,7539.00
967.17,7402.00
969.43,7286.00
971.68,7243.00
973.93,7168.00
976.18,7041.00
978.43,6978.00
980.68,6936.00
982.92,7031.00
985.17,7073.00
987.41,7010.00
989.65,6925.00
991.89,6925.00
994.12,6999.00
996.36,6925.00
998.59,6904.00
1000.83,6915.00
1003.06,6819.00
1005.29,6967.00
1007.51,7063.00
1009.74,7041.00
1011.97,7020.00
1014.19,7020.00
1016.41,6936.00
1018.63,7010.00
1020.85,7000.00
1023.07,6936.00
1025.28,6999.00
1027.49,6999.00
1029.71,7031.00
1031.92,6978.00
1034.13,6958.00
1036.33,6872.00
1038.54,6883.00
1040.74,6936.00
1042.95,6745.00
1045.15,6830.00
1047.35,6788.00
1049.55,6640.00
1051.74,6576.00
1053.94,6587.00
1056.13,6565.00
1058.32,6555.00
1060.51,6586.00
1062.70,6470.00
1064.89,6512.00
1067.08,6502.00
1069.26,6459.00
1071.44,6438.00
1073.63,6512.00
1075.81,6523.00
1077.98,6470.00
1080.16,6364.00
1082.34,6353.00
1084.51,6438.00
1086.68,6513.00
1088.85,6449.00
1091.02,6353.00
1093.19,6375.00
1095.35,6417.00
1097.52,6375.00
1099.68,6417.00
1101.84,6375.00
1104.00,6385.00
1106.16,6301.00
1108.32,6279.00
1110.48,6301.00
1112.63,6343.00
1114.78,6301.00
1116.93,6258.00
1119.08,6258.00
1121.23,6269.00
1123.38,6258.00
1125.52,6247.00
1127.67,6279.00
1129.81,6215.00
1131.95,6194.00
1134.09,6258.00
1136.22,6173.00
1138.36,6068.00
1140.50,5952.00
1142.63,5898.00
1144.76,5983.00
1146.89,6004.00
1149.02,5993.00
1151.15,5951.00
1153.27,5866.00
1155.40,5930.00
1157.52,5972.00
1159.64,5919.00
1161.76,5909.00
1163.88,5919.00
1165.99,5835.00
1168.11,5877.00
1170.22,5930.00
1172.34,5940.00
1174.45,5962.00
1176.56,5919.00
1178.66,5887.00
1180.77,5877.00
1182.88,5835.00
1184.98,5824.00
1187.08,5877.00
1189.18,5845.00
1191.28,5761.00
1193.38,5761.00
1195.47,5782.00
1197.57,5782.00
1199.66,5877.00
1201.75,5846.00
1203.85,5750.00
1205.93,5718.00
1208.02,5686.00
1210.11,5739.00
1212.19,5802.00
1214.28,5761.00
1216.36,5761.00
1218.44,5761.00
1220.52,5708.00
1222.59,5803.00
1224.67,5845.00
1226.74,5866.00
1228.82,5920.00
1230.89,5920.00
1232.96,5856.00
1235.03,5887.00
1237.10,5835.00
1239.16,5750.00
1241.23,5697.00
1243.29,5781.00
1245.35,5824.00
1247.41,5814.00
1249.47,5697.00
1251.53,5686.00
1253.58,5623.00
1255.64,5644.00
1257.69,5623.00
1259.74,5528.00
1261.79,5474.00
1263.84,5495.00
1265.89,5507.00
1267.93,5486.00
1269.98,5496.00
1272.02,5496.00
1274.06,5411.00
1276.10,5401.00
1278.14,5348.00
1280.18,5411.00
1282.22,5454.00
1284.25,5358.00
1286.28,5326.00
1288.32,5411.00
1290.35,5443.00
1292.38,5422.00
1294.40,5411.00
1296.43,5327.00
1298.46,5306.00
1300.48,5358.00
1302.50,5475.00
1304.52,5475.00
1306.54,5475.00
1308.56,5432.00
1310.58,5474.00
1312.59,5602.00
1314.60,5729.00
1316.62,5813.00
1318.63,5898.00
1320.64,6067.00
1322.65,6216.00
1324.65,6385.00
1326.66,6427.00
1328.66,6417.00
1330.66,6407.00
1332.67,6417.00
1334.67,6364.00
1336.66,6364.00
1338.66,6259.00
1340.66,6079.00
1342.65,5962.00
1344.65,5824.00
1346.64,5655.00
1348.63,5517.00
1350.62,5411.00
1352.60,5305.00
1354.59,5242.00
1356.57,5347.00
1358.56,5337.00
1360.54,5295.00
1362.52,5178.00
1364.50,5136.00
1366.48,5157.00
1368.46,5083.00
1370.43,5083.00
1372.41,5157.00
1374.38,5136.00
1376.35,5125.00
1378.32,5157.00
1380.29,5094.00
1382.25,4945.00
1384.22,4924.00
1386.18,5072.00
1388.15,5136.00
1390.11,5136.00
1392.07,5051.00
1394.03,5051.00
1395.99,5051.00
1397.94,4945.00
1399.90,4998.00
1401.85,5093.00
1403.80,5073.00
1405.76,5009.00
1407.71,4988.00
1409.65,4967.00
1411.60,4861.00
1413.55,4818.00
1415.49,4765.00
1417.44,4755.00
1419.38,4797.00
1421.32,4829.00
1423.26,4744.00
1425.19,4681.00
1427.13,4733.00
1429.07,4754.00
1431.00,4660.00
1432.93,4659.00
1434.86,4670.00
1436.79,4670.00
1438.72,4691.00
1440.65,4627.00
1442.57,4574.00
1444.50,4606.00
1446.42,4691.00
1448.34,4702.00
1450.26,4585.00
1452.18,4596.00
1454.10,4617.00
1456.02,4511.00
1457.93,4543.00
1459.85,4490.00
1461.76,4532.00
1463.67,4585.00
1465.58,4564.00
1467.49,4617.00
1469.40,4575.00
1471.31,4532.00
1473.21,4490.00
1475.11,4437.00
1477.02,4511.00
1478.92,4500.00
1480.82,4363.00
1482.72,4320.00
1484.61,4374.00
1486.51,4394.00
1488.40,4384.00
1490.30,4362.00
1492.19,4310.00
1494.08,4257.00
1495.97,4268.00
1497.86,4310.00
1499.74,4352.00
1501.63,4289.00
1503.51,4236.00
1505.40,4225.00
1507.28,4140.00
1509.16,4140.00
1511.04,4203.00
1512.92,4194.00
1514.79,4151.00
1516.67,4162.00
1518.54,4204.00
1520.42,4204.00
1522.29,4140.00
1524.16,4151.00
1526.03,4172.00
1527.89,4204.00
1529.76,4151.00
1531.63,4056.00
1533.49,4098.00
1535.35,4077.00
1537.21,3992.00
1539.07,4003.00
1540.93,4013.00
1542.79,4003.00
1544.65,4098.00
1546.50,4109.00
1548.36,4098.00
1550.21,4034.00
1552.06,3886.00
1553.91,3950.00
1555.76,4024.00
1557.61,3929.00
1559.45,3844.00
1561.30,3823.00
1563.14,3897.00
1564.98,3876.00
1566.82,3812.00
1568.67,3791.00
1570.50,3823.00
1572.34,3843.00
1574.18,3908.00
1576.01,3918.00
1577.85,3908.00
1579.68,3802.00
1581.51,3801.00
1583.34,3738.00
1585.17,3642.00
1587.00,3738.00
1588.82,3716.00
1590.65,3728.00
1592.47,3802.00
1594.30,3780.00
1596.12,3749.00
1597.94,3717.00
1599.76,3674.00
1601.57,3643.00
1603.39,3717.00
1605.21,3717.00
1607.02,3696.00
1608.83,3632.00
1610.64,3611.00
1612.45,3526.00
1614.26,3526.00
1616.07,3527.00
1617.88,3473.00
1619.68,3442.00
1621.49,3399.00
1623.29,3399.00
1625.09,3505.00
1626.89,3494.00
1628.69,3441.00
1630.49,3336.00
1632.29,3315.00
1634.08,3378.00
1635.88,3442.00
1637.67,3441.00
1639.46,3410.00
1641.25,3293.00
1643.04,3315.00
1644.83,3336.00
1646.62,3283.00
1648.41,3261.00
1650.19,3208.00
1651.97,3230.00
1653.76,3220.00
1655.54,3198.00
1657.32,3198.00
1659.10,3187.00
1660.88,3177.00
1662.65,3156.00
1664.43,3155.00
1666.20,3187.00
1667.97,3166.00
1669.75,3167.00
1671.52,3145.00
1673.29,3060.00
1675.05,3060.00
1676.82,3050.00
1678.59,3082.00
1680.35,3029.00
1682.11,2944.00
1683.88,2933.00
1685.64,2923.00
1687.40,2901.00
1689.16,2954.00
1690.91,2955.00
1692.67,2891.00
1694.42,2880.00
1696.18,2859.00
1697.93,2881.00
1699.68,2891.00
1701.43,2859.00
1703.18,2795.00
1704.93,2816.00
1706.68,2838.00
1708.42,2806.00
1710.17,2796.00
1711.91,2785.00
1713.65,2774.00
1715.39,2764.00
1717.13,2690.00
1718.87,2722.00
1720.61,2721.00
1722.35,2679.00
1724.08,2595.00
1725.81,2594.00
1727.55,2669.00
1729.28,2637.00
1731.01,2636.00
1732.74,2583.00
1734.47,2616.00
1736.19,2616.00
1737.92,2615.00
1739.64,2615.00
1741.37,2595.00
1743.09,2552.00
1744.81,2562.00
1746.53,2583.00
1748.25,2605.00
1749.97,2605.00
1751.68,2552.00
1753.40,2520.00
1755.11,2499.00
1756.83,2542.00
1758.54,2583.00
1760.25,2531.00
1761.96,2509.00
1763.67,2552.00
1765.38,2531.00
1767.08,2467.00
1768.79,2435.00
1770.49,2404.00
1772.19,2404.00
1773.90,2415.00
1775.60,2404.00
1777.30,2404.00
1778.99,2383.00
1780.69,2372.00
1782.39,2341.00
1784.08,2393.00
1785.78,2383.00
1787.47,2330.00
1789.16,2425.00
1790.85,2414.00
1792.54,2351.00
1794.23,2351.00
1795.91,2350.00
1797.60,2362.00
1799.28,2362.00
1800.97,2372.00
1802.65,2330.00
1804.33,2298.00
1806.01,2319.00
1807.69,2340.00
1809.37,2319.00
1811.05,2308.00
1812.72,2298.00
1814.40,2266.00
1816.07,2235.00
1817.74,2202.00
1819.41,2256.00
1821.08,2234.00
1822.75,2245.00
1824.42,2288.00
1826.09,2287.00
1827.75,2266.00
1829.42,2256.00
1831.08,2160.00
1832.74,2139.00
1834.40,2118.00
1836.06,2108.00
1837.72,2107.00
1839.38,2139.00
1841.04,2202.00
1842.69,2298.00
1844.35,2277.00
1846.00,2203.00
1847.65,2213.00
1849.30,2213.00
1850.95,2160.00
1852.60,2149.00
1854.25,2171.00
1855.90,2160.00
1857.54,2118.00
1859.19,2118.00
1860.83,2076.00
1862.47,2097.00
1864.12,2065.00
1865.76,1990.00
1867.40,2064.00
1869.03,2064.00
1870.67,2033.00
1872.31,2033.00
1873.94,2023.00
1875.57,2055.00
1877.21,2108.00
1878.84,2055.00
1880.47,2044.00
1882.10,2076.00
1883.73,2034.00
1885.35,2033.00
1886.98,2012.00
1888.61,1970.00
1890.23,1991.00
1891.85,1970.00
1893.47,2002.00
1895.09,2012.00
1896.71,1981.00
1898.33,2033.00
1899.95,2012.00
1901.57,1991.00
1903.18,2023.00
1904.80,2023.00
1906.41,1937.00
1908.02,1895.00
1909.63,1885.00
1911.24,1864.00
1912.85,1863.00
1914.46,1885.00
1916.07,1885.00
1917.67,1917.00
1919.28,1853.00
1920.88,1885.00
1922.48,1906.00
1924.08,1821.00
1925.68,1842.00
1927.28,1821.00
1928.88,1874.00
1930.48,1853.00
1932.07,1832.00
1933.67,1853.00
1935.26,1874.00
1936.86,1842.00
1938.45,1843.00
1940.04,1822.00
1941.63,1779.00
1943.22,1801.00
1944.80,1843.00
1946.39,1831.00
1947.98,1811.00
1949.56,1822.00
1951.14,1863.00
1952.73,1800.00
1954.31,1737.00
1955.89,1726.00
1957.47,1768.00
1959.05,1737.00
1960.62,1747.00
1962.20,1810.00
1963.77,1800.00
1965.35,1758.00
1966.92,1694.00
1968.49,1705.00
1970.06,1737.00
1971.63,1736.00
1973.20,1779.00
1974.77,1758.00
1976.34,1704.00
1977.90,1694.00
1979.47,1779.00
1981.03,1726.00
1982.59,1662.00
1984.15,1704.00
1985.71,1779.00
1987.27,1779.00
1988.83,1684.00
1990.39,1694.00
1991.94,1694.00
1993.50,1662.00
1995.05,1641.00
1996.61,1663.00
1998.16,1652.00
1999.71,1663.00
2001.26,1631.00
2002.81,1546.00
2004.36,1609.00
2005.91,1652.00
2007.45,1630.00
2009.00,1588.00
2010.54,1610.00
2012.08,1610.00
2013.62,1546.00
2015.17,1578.00
2016.71,1599.00
2018.24,1589.00
2019.78,1567.00
2021.32,1557.00
2022.85,1620.00
2024.39,1535.00
2025.92,1588.00
2027.46,1620.00
2028.99,1599.00
2030.52,1589.00
2032.05,1578.00
2033.58,1546.00
2035.10,1567.00
2036.63,1514.00
2038.16,1589.00
2039.68,1620.00
2041.21,1557.00
2042.73,1546.00
2044.25,1546.00
2045.77,1556.00
2047.29,1525.00
2048.81,1503.00
2050.33,1536.00
2051.84,1525.00
2053.36,1546.00
2054.87,1536.00
2056.39,1472.00
2057.90,1503.00
2059.41,1472.00
2060.92,1472.00
2062.43,1493.00
2063.94,1493.00
2065.45,1514.00
2066.95,1483.00
2068.46,1440.00
2069.96,1450.00
2071.47,1461.00
2072.97,1440.00
2074.47,1430.00
2075.97,1419.00
2077.47,1409.00
2078.97,1430.00
2080.47,1419.00
2081.96,1451.00
2083.46,1450.00
2084.95,1366.00
2086.45,1398.00
2087.94,1377.00
2089.43,1377.00
2090.92,1355.00
2092.41,1345.00
2093.90,1366.00
2095.39,1356.00
2096.88,1334.00
2098.36,1345.00
2099.85,1355.00
2101.33,1345.00
2102.81,1313.00
2104.30,1324.00
2105.78,1303.00
2107.26,1398.00
2108.74,1398.00
2110.21,1345.00
2111.69,1334.00
2113.17,1292.00
2114.64,1292.00
2116.12,1271.00
2117.59,1324.00
2119.06,1313.00
2120.53,1271.00
2122.00,1271.00
2123.47,1271.00
2124.94,1281.00
2126.41,1260.00
2127.87,1313.00
2129.34,1345.00
2130.80,1281.00
2132.27,1271.00
2133.73,1270.00
2135.19,1238.00
2136.65,1250.00
2138.11,1228.00
2139.57,1218.00
2141.03,1270.00
2142.48,1239.00
2143.94,1196.00
2145.39,1282.00
2146.85,1260.00
2148.30,1250.00
2149.75,1207.00
2151.20,1239.00
2152.65,1207.00
2154.10,1207.00
2155.55,1175.00
2157.00,1133.00
2158.44,1208.00
2159.89,1207.00
2161.33,1175.00
2162.78,1144.00
2164.22,1165.00
2165.66,1144.00
2167.10,1175.00
2168.54,1133.00
2169.98,1165.00
2171.42,1186.00
2172.85,1154.00
2174.29,1154.00
2175.72,1217.00
2177.16,1165.00
2178.59,1143.00
2180.02,1165.00
2181.45,1207.00
2182.88,1207.00
2184.31,1122.00
2185.74,1165.00
2187.17,1175.00
2188.59,1207.00
2190.02,1164.00
2191.44,1154.00
2192.87,1208.00
2194.29,1144.00
2195.71,1123.00
2197.13,1101.00
2198.55,1122.00
2199.97,1101.00
2201.39,1111.00
2202.81,1165.00
2204.22,1207.00
2205.64,1186.00
2207.05,1133.00
2208.46,1112.00
2209.88,1059.00
2211.29,1059.00
2212.70,1154.00
2214.11,1143.00
2215.52,1091.00
2216.92,1080.00
2218.33,1122.00
2219.74,1144.00
2221.14,1102.00
2222.54,1038.00
2223.95,995.00
2225.35,1027.00
2226.75,1080.00
2228.15,1101.00
2229.55,1090.00
2230.95,1123.00
2232.35,1048.00
2233.74,1017.00
2235.14,1016.00
2236.53,1037.00
2237.93,1038.00
2239.32,1038.00
2240.71,1059.00
2242.10,1037.00
2243.49,1027.00
2244.88,975.00
2246.27,1027.00
2247.66,1016.00
2249.04,985.00
2250.43,995.00
2251.81,1017.00
2253.20,1006.00
2254.58,974.00
2255.96,985.00
2257.34,985.00
2258.72,922.00
2260.10,932.00
2261.48,921.00
2262.86,996.00
2264.23,974.00
2265.61,921.00
2266.98,953.00
2268.36,931.00
2269.73,879.00
2271.10,879.00
2272.47,953.00
2273.84,964.00
2275.21,931.00
2276.58,921.00
2277.95,953.00
2279.31,922.00
2280.68,943.00
2282.05,911.00
2283.41,932.00
2284.77,974.00
2286.13,953.00
2287.50,921.00
2288.86,921.00
2290.22,932.00
2291.57,921.00
2292.93,910.00
2294.29,868.00
2295.64,848.00
2297.00,869.00
2298.35,847.00
2299.71,857.00
2301.06,858.00
2302.41,869.00
2303.76,826.00
2305.11,836.00
2306.46,848.00
2307.81,868.00
2309.15,879.00
2310.50,826.00
2311.84,826.00
2313.19,804.00
2314.53,826.00
2315.87,826.00
2317.22,826.00
2318.56,836.00
2319.90,837.00
2321.24,858.00
2322.57,869.00
2323.91,847.00
2325.25,826.00
2326.58,816.00
2327.92,826.00
2329.25,826.00
2330.58,836.00
2331.91,752.00
2333.25,783.00
2334.58,815.00
2335.90,868.00
2337.23,847.00
2338.56,826.00
2339.89,783.00
2341.21,805.00
2342.54,763.00
2343.86,773.00
2345.19,751.00
2346.51,731.00
2347.83,783.00
2349.15,784.00
2350.47,762.00
2351.79,783.00
2353.11,794.00
2354.42,805.00
2355.74,783.00
2357.06,826.00
2358.37,805.00
2359.68,826.00
2361.00,783.00
2362.31,741.00
2363.62,783.00
2364.93,783.00
2366.24,730.00
2367.55,720.00
2368.86,784.00
2370.16,826.00
2371.47,773.00
2372.77,784.00
2374.08,805.00
2375.38,784.00
2376.68,763.00
2377.98,773.00
2379.29,783.00
2380.59,762.00
2381.88,762.00
2383.18,710.00
2384.48,667.00
2385.78,762.00
2387.07,816.00
2388.37,805.00
2389.66,741.00
2390.95,762.00
2392.25,784.00
2393.54,752.00
2394.83,699.00
2396.12,677.00
2397.41,688.00
2398.70,678.00
2399.98,678.00
2401.27,646.00
2402.55,678.00
2403.84,656.00
2405.12,646.00
2406.41,646.00
2407.69,720.00
2408.97,709.00
2410.25,656.00
2411.53,668.00
2412.81,689.00
2414.09,667.00
2415.36,624.00
2416.64,657.00
2417.91,720.00
2419.19,699.00
2420.46,678.00
2421.74,699.00
2423.01,667.00
2424.28,699.00
2425.55,657.00
2426.82,636.00
2428.09,646.00
2429.36,646.00
2430.62,635.00
2431.89,624.00
2433.15,635.00
2434.42,678.00
2435.68,646.00
2436.94,646.00
2438.21,593.00
2439.47,614.00
2440.73,625.00
2441.99,678.00
2443.25,699.00
2444.51,667.00
2445.76,656.00
2447.02,625.00
2448.27,657.00
2449.53,678.00
2450.78,635.00
2452.03,667.00
2453.29,656.00
2454.54,667.00
2455.79,572.00
2457.04,582.00
2458.29,678.00
2459.54,657.00
2460.78,625.00
2462.03,603.00
2463.27,636.00
2464.52,625.00
2465.76,625.00
2467.01,625.00
2468.25,625.00
2469.49,635.00
2470.73,624.00
2471.97,593.00
2473.21,572.00
2474.45,635.00
2475.69,614.00
2476.92,562.00
2478.16,572.00
2479.39,530.00
2480.63,519.00
2481.86,561.00
2483.09,572.00
2484.32,593.00
2485.56,635.00
2486.79,593.00
2488.02,550.00
2489.24,593.00
2490.47,582.00
2491.70,604.00
2492.92,562.00
2494.15,614.00
2495.37,603.00
2496.60,562.00
2497.82,530.00
2499.04,593.00
2500.26,593.00
2501.48,593.00
2502.70,583.00
2503.92,593.00
2505.14,571.00
2506.36,530.00
2507.58,540.00
2508.79,561.00
2510.01,551.00
2511.22,519.00
2512.43,572.00
2513.64,572.00
2514.86,551.00
2516.07,550.00
2517.28,551.00
2518.49,540.00
2519.70,508.00
2520.90,487.00
2522.11,508.00
2523.32,603.00
2524.52,572.00
2525.73,540.00
2526.93,540.00
2528.13,562.00
2529.33,551.00
2530.54,519.00
2531.74,561.00
2532.94,604.00
2534.14,561.00
2535.33,508.00
2536.53,530.00
2537.73,444.00
2538.92,445.00
2540.12,519.00
2541.31,508.00
2542.51,519.00
2543.70,487.00
2544.89,540.00
2546.08,519.00
2547.27,529.00
2548.46,583.00
2549.65,541.00
2550.84,508.00
2552.03,466.00
2553.21,477.00
2554.40,476.00
2555.58,476.00
2556.77,508.00
2557.95,518.00
2559.13,540.00
2560.31,498.00
2561.50,466.00
2562.68,477.00
2563.85,466.00
2565.03,487.00
2566.21,455.00
2567.39,445.00
2568.56,477.00
2569.74,498.00
2570.91,487.00
2572.09,508.00
2573.26,456.00
2574.43,424.00
2575.61,487.00
2576.78,487.00
2577.95,477.00
2579.12,487.00
2580.29,508.00
2581.45,487.00
2582.62,466.00
2583.79,424.00
2584.95,403.00
2586.12,423.00
2587.28,392.00
2588.44,424.00
2589.61,508.00
2590.77,488.00
2591.93,476.00
2593.09,477.00
2594.25,477.00
2595.41,434.00
2596.56,413.00
2597.72,466.00
2598.88,413.00
2600.03,423.00
2601.19,445.00
2602.34,382.00
2603.50,403.00
2604.65,476.00
2605.80,444.00
2606.95,424.00
2608.10,434.00
2609.25,456.00
2610.40,455.00
2611.55,413.00
2612.70,413.00
2613.84,444.00
2614.99,403.00
2616.13,382.00
2617.28,381.00
2618.42,413.00
2619.56,402.00
2620.71,413.00
2621.85,423.00
2622.99,403.00
2624.13,381.00
2625.27,434.00
2626.40,455.00
2627.54,413.00
2628.68,371.00
2629.81,392.00
2630.95,381.00
2632.08,424.00
2633.22,423.00
2634.35,413.00
2635.48,370.00
2636.61,360.00
2637.74,371.00
2638.87,371.00
2640.00,392.00
2641.13,413.00
2642.26,403.00
2643.39,403.00
2644.51,339.00
2645.64,381.00
2646.76,402.00
2647.89,382.00
2649.01,339.00
2650.13,381.00
2651.25,360.00
2652.38,371.00
2653.50,339.00
2654.62,360.00
2655.73,360.00
2656.85,350.00
2657.97,360.00
2659.09,381.00
2660.20,349.00
2661.32,339.00
2662.43,349.00
2663.55,339.00
2664.66,338.00
2665.77,381.00
2666.88,371.00
2667.99,339.00
2669.10,339.00
2670.21,328.00
2671.32,338.00
2672.43,423.00
2673.54,413.00
2674.64,339.00
2675.75,339.00
2676.85,381.00
2677.96,371.00
2679.06,350.00
2680.16,328.00
2681.26,254.00
2682.37,276.00
2683.47,329.00
2684.57,339.00
2685.66,339.00
2686.76,381.00
2687.86,371.00
2688.96,381.00
2690.05,392.00
2691.15,338.00
2692.24,328.00
2693.34,307.00
2694.43,339.00
2695.52,297.00
2696.62,339.00
2697.71,360.00
2698.80,360.00
2699.89,339.00
2700.98,317.00
2702.06,307.00
2703.15,339.00
2704.24,275.00
2705.32,317.00
2706.41,381.00
2707.49,349.00
2708.58,296.00
2709.66,349.00
2710.74,360.00
2711.83,328.00
2712.91,328.00
2713.99,297.00
2715.07,318.00
2716.15,339.00
2717.22,339.00
2718.30,381.00
2719.38,317.00
2720.45,254.00
2721.53,275.00
2722.60,296.00
2723.68,276.00
2724.75,276.00
2725.82,265.00
2726.89,265.00
2727.97,255.00
2729.04,286.00
2730.11,328.00
2731.17,285.00
2732.24,317.00
2733.31,286.00
2734.38,276.00
2735.44,254.00
2736.51,254.00
2737.57,307.00
2738.64,328.00
2739.70,275.00
2740.76,276.00
2741.82,275.00
2742.89,275.00
2743.95,265.00
2745.01,285.00
2746.07,307.00
2747.12,318.00
2748.18,318.00
2749.24,286.00
2750.29,307.00
2751.35,307.00
2752.40,297.00
2753.46,318.00
2754.51,296.00
2755.57,275.00
2756.62,286.00
2757.67,264.00
2758.72,264.00
2759.77,265.00
2760.82,211.00
2761.87,222.00
2762.91,265.00
2763.96,307.00
2765.01,255.00
2766.05,233.00
2767.10,254.00
2768.14,286.00
2769.19,286.00
2770.23,255.00
2771.27,254.00
2772.31,254.00
2773.35,254.00
2774.40,297.00
2775.43,286.00
2776.47,296.00
2777.51,243.00
2778.55,307.00
2779.59,318.00
2780.62,264.00
2781.66,296.00
2782.69,254.00
2783.73,254.00
2784.76,223.00
2785.79,254.00
2786.82,254.00
2787.85,254.00
2788.89,212.00
2789.92,275.00
2790.94,254.00
2791.97,222.00
2793.00,212.00
2794.03,212.00
2795.05,222.00
2796.08,222.00
2797.11,212.00
2798.13,233.00
2799.15,254.00
2800.18,276.00
2801.20,264.00
2802.22,297.00
2803.24,297.00
2804.26,275.00
2805.28,212.00
2806.30,254.00
2807.32,275.00
2808.34,255.00
2809.35,180.00
2810.37,233.00
2811.39,244.00
2812.40,222.00
2813.41,212.00
2814.43,180.00
2815.44,180.00
2816.45,244.00
2817.46,254.00
2818.48,243.00
2819.49,254.00
2820.49,254.00
2821.50,202.00
2822.51,201.00
2823.52,212.00
2824.53,243.00
2825.53,264.00
2826.54,286.00
2827.54,233.00
2828.55,201.00
2829.55,222.00
2830.55,180.00
2831.55,180.00
2832.56,190.00
2833.56,233.00
2834.56,212.00
2835.56,201.00
2836.56,212.00
2837.55,222.00
2838.55,201.00
2839.55,233.00
2840.54,233.00
2841.54,190.00
2842.53,233.00
2843.53,233.00
2844.52,202.00
2845.51,233.00
2846.51,212.00
2847.50,243.00
2848.49,244.00
2849.48,212.00
2850.47,244.00
2851.46,233.00
2852.45,233.00
2853.43,233.00
2854.42,254.00
2855.41,233.00
2856.39,190.00
2857.38,212.00
2858.36,212.00
2859.34,201.00
2860.33,180.00
2861.31,201.00
2862.29,191.00
2863.27,212.00
2864.25,233.00
2865.23,201.00
2866.21,211.00
2867.19,190.00
2868.17,180.00
2869.14,212.00
2870.12,212.00
2871.09,233.00
2872.07,244.00
2873.04,222.00
2874.02,170.00
2874.99,170.00
2875.96,191.00
2876.93,159.00
2877.91,116.00
2878.88,201.00
2879.85,244.00
2880.82,180.00
2881.78,117.00
2882.75,148.00
2883.72,169.00
2884.69,180.00
2885.65,170.00
2886.62,158.00
2887.58,159.00
2888.55,232.00
2889.51,275.00
2890.47,244.00
2891.43,180.00
2892.39,170.00
2893.36,201.00
2894.31,212.00
2895.27,232.00
2896.23,212.00
2897.19,159.00
2898.15,191.00
2899.11,222.00
2900.06,180.00
2901.02,169.00
2901.97,169.00
2902.93,169.00
2903.88,180.00
2904.83,212.00
2905.79,211.00
2906.74,170.00
2907.69,148.00
2908.64,138.00
2909.59,117.00
2910.54,148.00
2911.49,116.00
2912.43,148.00
2913.38,159.00
2914.33,169.00
2915.27,169.00
2916.22,106.00
2917.16,127.00
2918.11,233.00
2919.05,307.00
2919.99,244.00
2920.94,138.00
2921.88,95.00
2922.82,159.00
2923.76,169.00
2924.70,169.00
2925.64,180.00
2926.58,148.00
2927.51,148.00
2928.45,148.00
2929.39,190.00
2930.32,159.00
2931.26,170.00
2932.19,222.00
2933.13,222.00
2934.06,243.00
2934.99,222.00
2935.92,191.00
2936.86,148.00
2937.79,170.00
2938.72,180.00
2939.65,170.00
2940.57,190.00
2941.50,170.00
2942.43,159.00
2943.36,159.00
2944.28,159.00
2945.21,148.00
2946.13,190.00
2947.06,201.00
2947.98,159.00
2948.91,148.00
2949.83,223.00
2950.75,233.00
2951.67,202.00
2952.59,190.00
2953.51,191.00
2954.43,138.00
2955.35,138.00
2956.27,180.00
2957.19,169.00
2958.10,170.00
2959.02,222.00
2959.94,149.00
2960.85,148.00
2961.77,202.00
2962.68,233.00
2963.59,127.00
2964.51,137.00
2965.42,148.00
2966.33,159.00
2967.24,201.00
2968.15,148.00
2969.06,127.00
2969.97,106.00
2970.88,127.00
2971.78,127.00
2972.69,169.00
2973.60,106.00
2974.50,117.00
2975.41,159.00
2976.31,159.00
2977.22,84.00
2978.12,63.00
2979.02,105.00
2979.93,180.00
2980.83,211.00
2981.73,116.00
2982.63,84.00
2983.53,148.00
2984.43,127.00
2985.33,148.00
2986.22,127.00
2987.12,117.00
2988.02,127.00
2988.91,148.00
2989.81,117.00
2990.70,127.00
2991.60,170.00
2992.49,149.00
2993.38,74.00
2994.28,127.00
2995.17,148.00
2996.06,95.00
2996.95,159.00
2997.84,148.00
2998.73,106.00
2999.62,84.00
3000.51,106.00
3001.40,127.00
3002.28,137.00
3003.17,137.00
3004.05,138.00
3004.94,127.00
3005.82,106.00
3006.71,137.00
3007.59,127.00
3008.47,169.00
3009.36,137.00
3010.24,116.00
3011.12,106.00
3012.00,95.00
3012.88,158.00
3013.76,148.00
3014.64,106.00
3015.51,127.00
3016.39,106.00
3017.27,127.00
3018.14,85.00
3019.02,105.00
3019.89,127.00
3020.77,106.00
3021.64,116.00
3022.52,106.00
3023.39,64.00
3024.26,106.00
3025.13,74.00
3026.00,63.00
3026.87,74.00
3027.74,117.00
3028.61,106.00
3029.48,84.00
3030.35,106.00
3031.21,137.00
3032.08,137.00
3032.95,148.00
3033.81,148.00
3034.68,95.00
3035.54,64.00
3036.40,95.00
3037.27,127.00
3038.13,127.00
3038.99,63.00
3039.85,21.00
3040.71,95.00
3041.57,63.00
3042.43,116.00
3043.29,148.00
3044.15,138.00
3045.01,85.00
3045.86,74.00
3046.72,64.00
3047.58,95.00
3048.43,116.00
3049.29,116.00
3050.14,106.00
3050.99,85.00
3051.85,106.00
3052.70,85.00
3053.55,127.00
3054.40,96.00
3055.25,95.00
3056.10,85.00
3056.95,75.00
3057.80,106.00
3058.65,106.00
3059.50,85.00
3060.34,64.00
3061.19,63.00
3062.04,95.00
3062.88,84.00
3063.73,106.00
3064.57,64.00
3065.42,0.00
3066.26,53.00
3067.10,95.00
3067.94,84.00
3068.78,64.00
3069.63,42.00
3070.47,63.00
3071.31,63.00
3072.14,84.00
3072.98,64.00
3073.82,95.00
3074.66,85.00
3075.49,74.00
3076.33,84.00
3077.17,74.00
3078.00,127.00
3078.83,116.00
3079.67,117.00
3080.50,95.00
3081.33,85.00
3082.17,63.00
3083.00,63.00
3083.83,127.00
3084.66,106.00
3085.49,106.00
3086.32,84.00
3087.15,85.00
3087.97,95.00
3088.80,85.00
3089.63,106.00
3090.46,106.00
3091.28,74.00
3092.11,74.00
3092.93,74.00
3093.75,85.00
3094.58,42.00
3095.40,31.00
3096.22,42.00
3097.05,42.00
3097.87,52.00
3098.69,43.00
3099.51,63.00
3100.33,84.00
3101.15,95.00
3101.96,63.00
3102.78,74.00
3103.60,85.00
3104.42,74.00
3105.23,64.00
3106.05,85.00
3106.86,53.00
3107.68,106.00
3108.49,127.00
3109.30,127.00
3110.12,74.00
3110.93,95.00
3111.74,106.00
3112.55,127.00
3113.36,106.00
3114.17,63.00
3114.98,63.00
3115.79,106.00
3116.60,117.00
3117.40,117.00
3118.21,127.00
3119.02,127.00
3119.82,85.00
3120.63,74.00
3121.43,53.00
3122.24,53.00
3123.04,42.00
3123.84,43.00
3124.65,42.00
3125.45,74.00
3126.25,84.00
3127.05,63.00
3127.85,84.00
3128.65,84.00
3129.45,106.00
3130.25,106.00
3131.05,53.00
3131.84,53.00
3132.64,74.00
3133.44,74.00
3134.23,84.00
3135.03,64.00
3135.82,64.00
3136.62,43.00
3137.41,74.00
3138.20,74.00
3139.00,84.00
3139.79,116.00
3140.58,74.00
3141.37,63.00
3142.16,52.00
3142.95,84.00
3143.74,117.00
3144.53,32.00
3145.32,53.00
3146.10,84.00
3146.89,32.00
3147.68,63.00
3148.46,95.00
3149.25,85.00
3150.03,85.00
3150.82,106.00
3151.60,106.00
3152.38,85.00
3153.17,84.00
3153.95,64.00
3154.73,85.00
3155.51,85.00
3156.29,64.00
3157.07,106.00
3157.85,74.00
3158.63,32.00
3159.41,42.00
3160.18,75.00
3160.96,84.00
3161.74,75.00
3162.51,64.00
3163.29,63.00
3164.06,32.00
3164.84,63.00
3165.61,32.00
3166.38,21.00
3167.16,21.00
3167.93,53.00
3168.70,52.00
3169.47,53.00
3170.24,63.00
3171.01,74.00
3171.78,117.00
3172.55,148.00
3173.32,106.00
3174.09,106.00
3174.85,43.00
3175.62,52.00
3176.39,64.00
3177.15,63.00
3177.92,85.00
3178.68,84.00
3179.45,138.00
3180.21,106.00
3180.97,74.00
3181.73,64.00
3182.50,42.00
3183.26,0.00
3184.02,21.00
3184.78,84.00
3185.54,32.00
3186.30,85.00
3187.05,84.00
3187.81,85.00
3188.57,85.00
3189.33,74.00
3190.08,42.00
3190.84,63.00
3191.59,106.00
3192.35,85.00
3193.10,85.00
3193.86,42.00
3194.61,42.00
3195.36,32.00
3196.12,43.00
3196.87,43.00
3197.62,84.00
3198.37,21.00
3199.12,42.00
3199.87,42.00
3200.62,22.00
3201.36,21.00
3202.11,21.00
3202.86,32.00
3203.61,22.00
3204.35,11.00
3205.10,0.00
3205.84,-21.00
3206.59,53.00
3207.33,84.00
3208.08,64.00
3208.82,42.00
3209.56,21.00
3210.30,53.00
3211.05,84.00
3211.79,32.00
3212.53,-53.00
3213.27,21.00
3214.01,42.00
3214.75,42.00
3215.48,21.00
3216.22,0.00
3216.96,0.00
3217.69,21.00
3218.43,32.00
3219.17,42.00
3219.90,21.00
3220.64,32.00
3221.37,0.00
3222.10,0.00
3222.84,0.00
3223.57,21.00
3224.30,21.00
3225.03,0.00
3225.76,32.00
3226.49,106.00
3227.22,96.00
3227.95,85.00
3228.68,22.00
3229.41,31.00
3230.14,43.00
3230.87,0.00
3231.59,63.00
3232.32,31.00
3233.04,74.00
3233.77,84.00
3234.49,11.00
3235.22,32.00
3235.94,42.00
3236.66,64.00
3237.39,31.00
3238.11,22.00
3238.83,21.00
3239.55,53.00
3240.27,63.00
3240.99,53.00
3241.71,0.00
3242.43,10.00
3243.15,64.00
3243.87,42.00
3244.58,53.00
3245.30,21.00
3246.02,42.00
3246.73,75.00
3247.45,105.00
3248.16,63.00
3248.88,32.00
3249.59,43.00
3250.30,52.00
3251.01,0.00
3251.73,10.00
3252.44,53.00
3253.15,85.00
3253.86,117.00
3254.57,106.00
3255.28,117.00
3255.99,64.00
3256.70,10.00
3257.41,95.00
3258.11,117.00
3258.82,95.00
3259.53,85.00
3260.23,74.00
3260.94,96.00
3261.64,22.00
3262.35,21.00
3263.05,75.00
3263.76,64.00
3264.46,74.00
3265.16,-10.00
3265.86,11.00
3266.56,64.00
3267.26,0.00
3267.97,31.00
3268.67,85.00
3269.36,-11.00
3270.06,11.00
3270.76,42.00
3271.46,22.00
3272.16,42.00
3272.85,0.00
