RamanShift,Intensity
180.91,243.00
183.74,244.00
186.56,339.00
189.39,466.00
192.21,667.00
195.03,858.00
197.84,1207.00
200.66,1631.00
203.47,2118.00
206.28,2679.00
209.09,3145.00
211.89,3579.00
214.70,3833.00
217.50,4161.00
220.30,4447.00
223.10,4627.00
225.89,4861.00
228.69,4881.00
231.48,4828.00
234.27,4882.00
237.05,4871.00
239.84,4839.00
242.62,4734.00
245.40,4617.00
248.18,4415.00
250.96,4204.00
253.73,4056.00
256.51,3886.00
259.28,3801.00
262.05,3632.00
264.81,3463.00
267.58,3346.00
270.34,3251.00
273.10,3209.00
275.86,3103.00
278.61,3060.00
281.37,3092.00
284.12,3113.00
286.87,3008.00
289.62,2986.00
292.36,2986.00
295.11,3018.00
297.85,2975.00
300.59,2986.00
303.33,3050.00
306.06,3049.00
308.80,3008.00
311.53,2996.00
314.26,2901.00
316.99,2891.00
319.71,2965.00
322.44,3061.00
325.16,3092.00
327.88,2954.00
330.59,2870.00
333.31,2891.00
336.02,2922.00
338.73,2902.00
341.44,2954.00
344.15,2933.00
346.86,2827.00
349.56,2796.00
352.26,2838.00
354.96,2817.00
357.66,2827.00
360.35,2859.00
363.05,2880.00
365.74,2891.00
368.43,2849.00
371.12,2859.00
373.80,2933.00
376.48,2954.00
379.17,2901.00
381.85,2848.00
384.52,2943.00
387.20,2901.00
389.87,2849.00
392.54,2859.00
395.21,2901.00
397.88,2965.00
400.55,2902.00
403.21,2944.00
405.87,3008.00
408.53,2891.00
411.19,2869.00
413.84,2943.00
416.50,2976.00
419.15,2923.00
421.80,2806.00
424.45,2849.00
427.10,2828.00
429.74,2870.00
432.38,2923.00
435.02,2912.00
437.66,2870.00
440.30,2891.00
442.93,2859.00
445.56,2859.00
448.19,2880.00
450.82,2838.00
453.45,2838.00
456.07,2902.00
458.70,2901.00
461.32,2881.00
463.94,2891.00
466.55,2859.00
469.17,2891.00
471.78,2881.00
474.39,2870.00
477.00,2859.00
479.61,2859.00
482.22,2901.00
484.82,2891.00
487.42,2880.00
490.02,2827.00
492.62,2859.00
495.21,2870.00
497.81,2838.00
500.40,2774.00
502.99,2785.00
505.58,2795.00
508.17,2796.00
510.75,2848.00
513.33,2848.00
515.91,2785.00
518.49,2806.00
521.07,2774.00
523.65,2722.00
526.22,2795.00
528.79,2828.00
531.36,2774.00
533.93,2743.00
536.49,2764.00
539.06,2807.00
541.62,2764.00
544.18,2827.00
546.74,2849.00
549.30,2742.00
551.85,2890.00
554.40,2891.00
556.95,2848.00
559.50,2817.00
562.05,2785.00
564.59,2722.00
567.14,2721.00
569.68,2785.00
572.22,2785.00
574.76,2763.00
577.29,2732.00
579.83,2700.00
582.36,2669.00
584.89,2637.00
587.42,2658.00
589.95,2679.00
592.47,2711.00
594.99,2711.00
597.52,2743.00
600.04,2679.00
602.55,2605.00
605.07,2604.00
607.58,2605.00
610.09,2627.00
612.60,2637.00
615.11,2594.00
617.62,2489.00
620.12,2616.00
622.63,2637.00
625.13,2552.00
627.63,2574.00
630.13,2573.00
632.62,2552.00
635.12,2499.00
637.61,2520.00
640.10,2478.00
642.59,2446.00
645.07,2404.00
647.56,2457.00
650.04,2510.00
652.52,2414.00
655.00,2393.00
657.48,2361.00
659.96,2414.00
662.43,2488.00
664.90,2467.00
667.37,2414.00
669.84,2447.00
672.31,2436.00
674.78,2457.00
677.24,2478.00
679.70,2467.00
682.16,2414.00
684.62,2393.00
687.08,2393.00
689.53,2457.00
691.98,2489.00
694.43,2457.00
696.88,2382.00
699.33,2351.00
701.78,2436.00
704.22,2414.00
706.66,2383.00
709.10,2329.00
711.54,2298.00
713.98,2383.00
716.42,2467.00
718.85,2488.00
721.28,2583.00
723.71,2711.00
726.14,2838.00
728.57,2881.00
730.99,2912.00
733.41,2891.00
735.83,2753.00
738.25,2689.00
740.67,2626.00
743.09,2552.00
745.50,2393.00
747.91,2234.00
750.33,2256.00
752.73,2277.00
755.14,2309.00
757.55,2267.00
759.95,2150.00
762.35,2150.00
764.75,2139.00
767.15,2075.00
769.55,2139.00
771.95,2160.00
774.34,2129.00
776.73,2118.00
779.12,2171.00
781.51,2150.00
783.90,2171.00
786.28,2171.00
788.67,2192.00
791.05,2139.00
793.43,2118.00
795.80,2192.00
798.18,2160.00
800.56,2075.00
802.93,2075.00
805.30,2076.00
807.67,2139.00
810.04,2054.00
812.40,2055.00
814.77,2139.00
817.13,2086.00
819.49,2033.00
821.85,1959.00
824.21,1991.00
826.57,2043.00
828.92,2075.00
831.27,1970.00
833.63,1948.00
835.98,1990.00
838.32,1948.00
840.67,1959.00
843.01,1969.00
845.36,1969.00
847.70,1928.00
850.04,1916.00
852.37,1885.00
854.71,1885.00
857.05,1885.00
859.38,1917.00
861.71,1970.00
864.04,1969.00
866.37,1948.00
868.69,1874.00
871.02,1885.00
873.34,1948.00
875.66,1895.00
877.98,1895.00
880.30,1906.00
882.62,1895.00
884.93,1885.00
887.24,1884.00
889.55,1811.00
891.86,1821.00
894.17,1885.00
896.48,1864.00
898.78,1864.00
901.09,1842.00
903.39,1842.00
905.69,1863.00
907.99,1843.00
910.28,1885.00
912.58,1853.00
914.87,1811.00
917.16,1896.00
919.45,1917.00
921.74,1854.00
924.03,1863.00
926.31,1790.00
928.60,1800.00
930.88,1821.00
933.16,1789.00
935.44,1779.00
937.72,1874.00
939.99,1853.00
942.26,1811.00
944.54,1779.00
946.81,1822.00
949.08,1822.00
951.34,1832.00
953.61,1821.00
955.87,1790.00
958.14,1779.00
960.40,1822.00
962.66,1811.00
964.92,1790.00
967.17,1705.00
969.43,1726.00
971.68,1673.00
973.93,1652.00
976.18,1684.00
978.43,1726.00
980.68,1705.00
982.92,1630.00
985.17,1609.00
987.41,1662.00
989.65,1630.00
991.89,1631.00
994.12,1736.00
996.36,1663.00
998.59,1652.00
1000.83,1694.00
1003.06,1705.00
1005.29,1694.00
1007.51,1684.00
1009.74,1652.00
1011.97,1694.00
1014.19,1694.00
1016.41,1673.00
1018.63,1673.00
1020.85,1695.00
1023.07,1641.00
1025.28,1609.00
1027.49,1652.00
1029.71,1652.00
1031.92,1663.00
1034.13,1695.00
1036.33,1757.00
1038.54,1726.00
1040.74,1630.00
1042.95,1674.00
1045.15,1599.00
1047.35,1536.00
1049.55,1567.00
1051.74,1546.00
1053.94,1524.00
1056.13,1536.00
1058.32,1589.00
1060.51,1546.00
1062.70,1535.00
1064.89,1536.00
1067.08,1578.00
1069.26,1589.00
1071.44,1525.00
1073.63,1535.00
1075.81,1482.00
1077.98,1472.00
1080.16,1536.00
1082.34,1525.00
1084.51,1514.00
1086.68,1504.00
1088.85,1493.00
1091.02,1567.00
1093.19,1514.00
1095.35,1525.00
1097.52,1578.00
1099.68,1503.00
1101.84,1493.00
1104.00,1440.00
1106.16,1472.00
1108.32,1525.00
1110.48,1514.00
1112.63,1524.00
1114.78,1557.00
1116.93,1556.00
1119.08,1567.00
1121.23,1472.00
1123.38,1430.00
1125.52,1377.00
1127.67,1377.00
1129.81,1387.00
1131.95,1377.00
1134.09,1398.00
1136.22,1493.00
1138.36,1546.00
1140.50,1482.00
1142.63,1450.00
1144.76,1419.00
1146.89,1398.00
1149.02,1461.00
1151.15,1482.00
1153.27,1450.00
1155.40,1418.00
1157.52,1376.00
1159.64,1440.00
1161.76,1430.00
1163.88,1461.00
1165.99,1440.00
1168.11,1419.00
1170.22,1419.00
1172.34,1451.00
1174.45,1429.00
1176.56,1419.00
1178.66,1494.00
1180.77,1461.00
1182.88,1408.00
1184.98,1398.00
1187.08,1430.00
1189.18,1377.00
1191.28,1355.00
1193.38,1366.00
1195.47,1429.00
1197.57,1430.00
1199.66,1366.00
1201.75,1376.00
1203.85,1377.00
1205.93,1419.00
1208.02,1355.00
1210.11,1377.00
1212.19,1408.00
1214.28,1398.00
1216.36,1345.00
1218.44,1397.00
1220.52,1419.00
1222.59,1408.00
1224.67,1440.00
1226.74,1377.00
1228.82,1355.00
1230.89,1398.00
1232.96,1397.00
1235.03,1344.00
1237.10,1408.00
1239.16,1377.00
1241.23,1366.00
1243.29,1398.00
1245.35,1398.00
1247.41,1408.00
1249.47,1419.00
1251.53,1430.00
1253.58,1387.00
1255.64,1355.00
1257.69,1356.00
1259.74,1324.00
1261.79,1302.00
1263.84,1313.00
1265.89,1334.00
1267.93,1377.00
1269.98,1366.00
1272.02,1408.00
1274.06,1356.00
1276.10,1292.00
1278.14,1323.00
1280.18,1271.00
1282.22,1250.00
1284.25,1239.00
1286.28,1292.00
1288.32,1313.00
1290.35,1314.00
1292.38,1345.00
1294.40,1303.00
1296.43,1271.00
1298.46,1356.00
1300.48,1366.00
1302.50,1356.00
1304.52,1271.00
1306.54,1271.00
1308.56,1323.00
1310.58,1345.00
1312.59,1366.00
1314.60,1366.00
1316.62,1387.00
1318.63,1451.00
1320.64,1472.00
1322.65,1472.00
1324.65,1515.00
1326.66,1589.00
1328.66,1578.00
1330.66,1588.00
1332.67,1567.00
1334.67,1557.00
1336.66,1515.00
1338.66,1440.00
1340.66,1451.00
1342.65,1461.00
1344.65,1440.00
1346.64,1324.00
1348.63,1292.00
1350.62,1302.00
1352.60,1302.00
1354.59,1323.00
1356.57,1313.00
1358.56,1345.00
1360.54,1356.00
1362.52,1334.00
1364.50,1303.00
1366.48,1271.00
1368.46,1271.00
1370.43,1260.00
1372.41,1197.00
1374.38,1197.00
1376.35,1292.00
1378.32,1282.00
1380.29,1271.00
1382.25,1250.00
1384.22,1207.00
1386.18,1207.00
1388.15,1186.00
1390.11,1250.00
1392.07,1271.00
1394.03,1271.00
1395.99,1228.00
1397.94,1207.00
1399.90,1239.00
1401.85,1250.00
1403.80,1217.00
1405.76,1239.00
1407.71,1165.00
1409.65,1165.00
1411.60,1208.00
1413.55,1186.00
1415.49,1207.00
1417.44,1197.00
1419.38,1165.00
1421.32,1133.00
1423.26,1112.00
1425.19,1102.00
1427.13,1196.00
1429.07,1143.00
1431.00,1133.00
1432.93,1186.00
1434.86,1186.00
1436.79,1154.00
1438.72,1155.00
1440.65,1186.00
1442.57,1165.00
1444.50,1133.00
1446.42,1186.00
1448.34,1133.00
1450.26,1123.00
1452.18,1144.00
1454.10,1165.00
1456.02,1154.00
1457.93,1186.00
1459.85,1133.00
1461.76,1080.00
1463.67,1101.00
1465.58,1112.00
1467.49,1154.00
1469.40,1143.00
1471.31,1101.00
1473.21,1101.00
1475.11,1080.00
1477.02,1069.00
1478.92,1048.00
1480.82,1080.00
1482.72,1101.00
1484.61,1101.00
1486.51,1048.00
1488.40,995.00
1490.30,1005.00
1492.19,1080.00
1494.08,1049.00
1495.97,1027.00
1497.86,1048.00
1499.74,1059.00
1501.63,1080.00
1503.51,1048.00
1505.40,1017.00
1507.28,1017.00
1509.16,1017.00
1511.04,953.00
1512.92,1017.00
1514.79,1080.00
1516.67,1017.00
1518.54,985.00
1520.42,1037.00
1522.29,1016.00
1524.16,964.00
1526.03,1038.00
1527.89,1038.00
1529.76,931.00
1531.63,975.00
1533.49,1027.00
1535.35,985.00
1537.21,964.00
1539.07,1017.00
1540.93,1027.00
1542.79,1037.00
1544.65,1006.00
1546.50,953.00
1548.36,953.00
1550.21,942.00
1552.06,921.00
1553.91,943.00
1555.76,995.00
1557.61,985.00
1559.45,932.00
1561.30,921.00
1563.14,996.00
1564.98,985.00
1566.82,910.00
1568.67,964.00
1570.50,996.00
1572.34,985.00
1574.18,942.00
1576.01,953.00
1577.85,974.00
1579.68,974.00
1581.51,953.00
1583.34,922.00
1585.17,985.00
1587.00,984.00
1588.82,942.00
1590.65,879.00
1592.47,879.00
1594.30,900.00
1596.12,953.00
1597.94,964.00
1599.76,868.00
1601.57,910.00
1603.39,964.00
1605.21,995.00
1607.02,921.00
1608.83,857.00
1610.64,890.00
1612.45,900.00
1614.26,942.00
1616.07,932.00
1617.88,868.00
1619.68,848.00
1621.49,826.00
1623.29,847.00
1625.09,805.00
1626.89,826.00
1628.69,857.00
1630.49,826.00
1632.29,805.00
1634.08,826.00
1635.88,837.00
1637.67,794.00
1639.46,773.00
1641.25,762.00
1643.04,805.00
1644.83,805.00
1646.62,752.00
1648.41,720.00
1650.19,763.00
1651.97,741.00
1653.76,783.00
1655.54,752.00
1657.32,784.00
1659.10,783.00
1660.88,805.00
1662.65,837.00
1664.43,741.00
1666.20,741.00
1667.97,773.00
1669.75,762.00
1671.52,763.00
1673.29,783.00
1675.05,805.00
1676.82,784.00
1678.59,741.00
1680.35,731.00
1682.11,720.00
1683.88,699.00
1685.64,677.00
1687.40,720.00
1689.16,720.00
1690.91,710.00
1692.67,741.00
1694.42,699.00
1696.18,646.00
1697.93,667.00
1699.68,720.00
1701.43,698.00
1703.18,699.00
1704.93,678.00
1706.68,709.00
1708.42,710.00
1710.17,677.00
1711.91,667.00
1713.65,656.00
1715.39,646.00
1717.13,635.00
1718.87,635.00
1720.61,635.00
1722.35,615.00
1724.08,604.00
1725.81,646.00
1727.55,678.00
1729.28,636.00
1731.01,667.00
1732.74,667.00
1734.47,635.00
1736.19,593.00
1737.92,614.00
1739.64,615.00
1741.37,572.00
1743.09,561.00
1744.81,603.00
1746.53,646.00
1748.25,625.00
1749.97,635.00
1751.68,646.00
1753.40,635.00
1755.11,593.00
1756.83,593.00
1758.54,614.00
1760.25,593.00
1761.96,593.00
1763.67,593.00
1765.38,593.00
1767.08,593.00
1768.79,593.00
1770.49,635.00
1772.19,614.00
1773.90,572.00
1775.60,636.00
1777.30,614.00
1778.99,593.00
1780.69,593.00
1782.39,583.00
1784.08,530.00
1785.78,509.00
1787.47,582.00
1789.16,583.00
1790.85,561.00
1792.54,530.00
1794.23,509.00
1795.91,615.00
1797.60,614.00
1799.28,615.00
1800.97,593.00
1802.65,540.00
1804.33,530.00
1806.01,498.00
1807.69,529.00
1809.37,572.00
1811.05,519.00
1812.72,508.00
1814.40,508.00
1816.07,509.00
1817.74,550.00
1819.41,551.00
1821.08,551.00
1822.75,562.00
1824.42,572.00
1826.09,551.00
1827.75,572.00
1829.42,551.00
1831.08,551.00
1832.74,530.00
1834.40,519.00
1836.06,508.00
1837.72,540.00
1839.38,519.00
1841.04,508.00
1842.69,529.00
1844.35,509.00
1846.00,551.00
1847.65,551.00
1849.30,551.00
1850.95,529.00
1852.60,508.00
1854.25,498.00
1855.90,509.00
1857.54,509.00
1859.19,497.00
1860.83,465.00
1862.47,444.00
1864.12,477.00
1865.76,476.00
1867.40,466.00
1869.03,487.00
1870.67,477.00
1872.31,487.00
1873.94,519.00
1875.57,530.00
1877.21,519.00
1878.84,466.00
1880.47,445.00
1882.10,487.00
1883.73,466.00
1885.35,466.00
1886.98,466.00
1888.61,529.00
1890.23,477.00
1891.85,487.00
1893.47,498.00
1895.09,477.00
1896.71,466.00
1898.33,508.00
1899.95,498.00
1901.57,434.00
1903.18,434.00
1904.80,465.00
1906.41,466.00
1908.02,498.00
1909.63,434.00
1911.24,466.00
1912.85,434.00
1914.46,445.00
1916.07,519.00
1917.67,487.00
1919.28,466.00
1920.88,424.00
1922.48,423.00
1924.08,445.00
1925.68,444.00
1927.28,423.00
1928.88,424.00
1930.48,466.00
1932.07,413.00
1933.67,381.00
1935.26,477.00
1936.86,476.00
1938.45,444.00
1940.04,466.00
1941.63,413.00
1943.22,413.00
1944.80,424.00
1946.39,445.00
1947.98,402.00
1949.56,424.00
1951.14,402.00
1952.73,402.00
1954.31,455.00
1955.89,455.00
1957.47,455.00
1959.05,445.00
1960.62,477.00
1962.20,424.00
1963.77,466.00
1965.35,466.00
1966.92,466.00
1968.49,403.00
1970.06,423.00
1971.63,445.00
1973.20,477.00
1974.77,466.00
1976.34,466.00
1977.90,455.00
1979.47,466.00
1981.03,466.00
1982.59,423.00
1984.15,413.00
1985.71,360.00
1987.27,392.00
1988.83,424.00
1990.39,424.00
1991.94,445.00
1993.50,434.00
1995.05,434.00
1996.61,403.00
1998.16,402.00
1999.71,360.00
2001.26,360.00
2002.81,413.00
2004.36,445.00
2005.91,423.00
2007.45,424.00
2009.00,402.00
2010.54,413.00
2012.08,424.00
2013.62,403.00
2015.17,349.00
2016.71,360.00
2018.24,382.00
2019.78,423.00
2021.32,423.00
2022.85,424.00
2024.39,424.00
2025.92,402.00
2027.46,424.00
2028.99,445.00
2030.52,424.00
2032.05,371.00
2033.58,413.00
2035.10,413.00
2036.63,371.00
2038.16,413.00
2039.68,391.00
2041.21,392.00
2042.73,424.00
2044.25,382.00
2045.77,360.00
2047.29,391.00
2048.81,360.00
2050.33,339.00
2051.84,360.00
2053.36,392.00
2054.87,296.00
2056.39,349.00
2057.90,317.00
2059.41,338.00
2060.92,382.00
2062.43,413.00
2063.94,413.00
2065.45,403.00
2066.95,339.00
2068.46,360.00
2069.96,360.00
2071.47,413.00
2072.97,392.00
2074.47,360.00
2075.97,370.00
2077.47,360.00
2078.97,360.00
2080.47,339.00
2081.96,381.00
2083.46,318.00
2084.95,318.00
2086.45,328.00
2087.94,349.00
2089.43,329.00
2090.92,307.00
2092.41,339.00
2093.90,349.00
2095.39,328.00
2096.88,286.00
2098.36,317.00
2099.85,339.00
2101.33,328.00
2102.81,307.00
2104.30,297.00
2105.78,328.00
2107.26,307.00
2108.74,328.00
2110.21,339.00
2111.69,296.00
2113.17,297.00
2114.64,296.00
2116.12,286.00
2117.59,307.00
2119.06,339.00
2120.53,328.00
2122.00,328.00
2123.47,329.00
2124.94,328.00
2126.41,360.00
2127.87,328.00
2129.34,328.00
2130.80,338.00
2132.27,296.00
2133.73,317.00
2135.19,360.00
2136.65,360.00
2138.11,318.00
2139.57,360.00
2141.03,329.00
2142.48,275.00
2143.94,296.00
2145.39,286.00
2146.85,275.00
2148.30,339.00
2149.75,360.00
2151.20,297.00
2152.65,244.00
2154.10,254.00
2155.55,276.00
2157.00,276.00
2158.44,222.00
2159.89,265.00
2161.33,286.00
2162.78,307.00
2164.22,307.00
2165.66,296.00
2167.10,244.00
2168.54,275.00
2169.98,318.00
2171.42,297.00
2172.85,297.00
2174.29,244.00
2175.72,233.00
2177.16,254.00
2178.59,297.00
2180.02,297.00
2181.45,286.00
2182.88,276.00
2184.31,255.00
2185.74,255.00
2187.17,318.00
2188.59,276.00
2190.02,254.00
2191.44,233.00
2192.87,255.00
2194.29,276.00
2195.71,265.00
2197.13,264.00
2198.55,275.00
2199.97,254.00
2201.39,276.00
2202.81,254.00
2204.22,275.00
2205.64,265.00
2207.05,254.00
2208.46,254.00
2209.88,276.00
2211.29,296.00
2212.70,275.00
2214.11,264.00
2215.52,255.00
2216.92,276.00
2218.33,254.00
2219.74,254.00
2221.14,275.00
2222.54,254.00
2223.95,254.00
2225.35,254.00
2226.75,254.00
2228.15,233.00
2229.55,265.00
2230.95,201.00
2232.35,233.00
2233.74,264.00
2235.14,233.00
2236.53,244.00
2237.93,254.00
2239.32,254.00
2240.71,233.00
2242.10,255.00
2243.49,244.00
2244.88,243.00
2246.27,254.00
2247.66,243.00
2249.04,233.00
2250.43,254.00
2251.81,254.00
2253.20,264.00
2254.58,254.00
2255.96,222.00
2257.34,233.00
2258.72,255.00
2260.10,243.00
2261.48,233.00
2262.86,254.00
2264.23,265.00
2265.61,264.00
2266.98,254.00
2268.36,233.00
2269.73,275.00
2271.10,243.00
2272.47,223.00
2273.84,244.00
2275.21,254.00
2276.58,244.00
2277.95,244.00
2279.31,244.00
2280.68,191.00
2282.05,212.00
2283.41,212.00
2284.77,244.00
2286.13,244.00
2287.50,180.00
2288.86,170.00
2290.22,222.00
2291.57,243.00
2292.93,297.00
2294.29,191.00
2295.64,190.00
2297.00,190.00
2298.35,212.00
2299.71,202.00
2301.06,180.00
2302.41,201.00
2303.76,201.00
2305.11,212.00
2306.46,190.00
2307.81,149.00
2309.15,180.00
2310.50,191.00
2311.84,222.00
2313.19,233.00
2314.53,233.00
2315.87,212.00
2317.22,190.00
2318.56,212.00
2319.90,212.00
2321.24,191.00
2322.57,191.00
2323.91,201.00
2325.25,180.00
2326.58,191.00
2327.92,190.00
2329.25,233.00
2330.58,243.00
2331.91,254.00
2333.25,211.00
2334.58,211.00
2335.90,201.00
2337.23,201.00
2338.56,222.00
2339.89,201.00
2341.21,223.00
2342.54,201.00
2343.86,169.00
2345.19,169.00
2346.51,148.00
2347.83,159.00
2349.15,190.00
2350.47,170.00
2351.79,170.00
2353.11,233.00
2354.42,190.00
2355.74,170.00
2357.06,201.00
2358.37,180.00
2359.68,212.00
2361.00,202.00
2362.31,202.00
2363.62,233.00
2364.93,222.00
2366.24,180.00
2367.55,106.00
2368.86,149.00
2370.16,180.00
2371.47,222.00
2372.77,191.00
2374.08,180.00
2375.38,202.00
2376.68,201.00
2377.98,212.00
2379.29,212.00
2380.59,222.00
2381.88,180.00
2383.18,212.00
2384.48,202.00
2385.78,180.00
2387.07,212.00
2388.37,254.00
2389.66,190.00
2390.95,191.00
2392.25,169.00
2393.54,201.00
2394.83,201.00
2396.12,159.00
2397.41,159.00
2398.70,191.00
2399.98,202.00
2401.27,211.00
2402.55,191.00
2403.84,127.00
2405.12,95.00
2406.41,191.00
2407.69,212.00
2408.97,191.00
2410.25,180.00
2411.53,169.00
2412.81,233.00
2414.09,191.00
2415.36,169.00
2416.64,191.00
2417.91,169.00
2419.19,127.00
2420.46,149.00
2421.74,201.00
2423.01,212.00
2424.28,212.00
2425.55,191.00
2426.82,212.00
2428.09,212.00
2429.36,180.00
2430.62,180.00
2431.89,127.00
2433.15,159.00
2434.42,191.00
2435.68,191.00
2436.94,180.00
2438.21,158.00
2439.47,158.00
2440.73,169.00
2441.99,180.00
2443.25,190.00
2444.51,212.00
2445.76,191.00
2447.02,180.00
2448.27,127.00
2449.53,149.00
2450.78,159.00
2452.03,180.00
2453.29,191.00
2454.54,169.00
2455.79,169.00
2457.04,148.00
2458.29,116.00
2459.54,149.00
2460.78,180.00
2462.03,159.00
2463.27,191.00
2464.52,148.00
2465.76,117.00
2467.01,117.00
2468.25,191.00
2469.49,201.00
2470.73,190.00
2471.97,190.00
2473.21,159.00
2474.45,169.00
2475.69,105.00
2476.92,148.00
2478.16,159.00
2479.39,148.00
2480.63,170.00
2481.86,127.00
2483.09,127.00
2484.32,148.00
2485.56,138.00
2486.79,169.00
2488.02,159.00
2489.24,159.00
2490.47,180.00
2491.70,158.00
2492.92,170.00
2494.15,137.00
2495.37,84.00
2496.60,138.00
2497.82,159.00
2499.04,127.00
2500.26,106.00
2501.48,127.00
2502.70,148.00
2503.92,159.00
2505.14,148.00
2506.36,117.00
2507.58,149.00
2508.79,106.00
2510.01,106.00
2511.22,95.00
2512.43,148.00
2513.64,169.00
2514.86,116.00
2516.07,127.00
2517.28,117.00
2518.49,127.00
2519.70,117.00
2520.90,127.00
2522.11,127.00
2523.32,105.00
2524.52,149.00
2525.73,127.00
2526.93,159.00
2528.13,106.00
2529.33,116.00
2530.54,148.00
2531.74,96.00
2532.94,138.00
2534.14,148.00
2535.33,85.00
2536.53,95.00
2537.73,84.00
2538.92,64.00
2540.12,127.00
2541.31,117.00
2542.51,127.00
2543.70,138.00
2544.89,128.00
2546.08,106.00
2547.27,85.00
2548.46,127.00
2549.65,128.00
2550.84,169.00
2552.03,127.00
2553.21,138.00
2554.40,127.00
2555.58,85.00
2556.77,95.00
2557.95,127.00
2559.13,128.00
2560.31,117.00
2561.50,95.00
2562.68,138.00
2563.85,105.00
2565.03,84.00
2566.21,106.00
2567.39,117.00
2568.56,127.00
2569.74,96.00
2570.91,85.00
2572.09,106.00
2573.26,85.00
2574.43,138.00
2575.61,117.00
2576.78,127.00
2577.95,117.00
2579.12,138.00
2580.29,159.00
2581.45,148.00
2582.62,95.00
2583.79,95.00
2584.95,85.00
2586.12,95.00
2587.28,137.00
2588.44,148.00
2589.61,127.00
2590.77,84.00
2591.93,127.00
2593.09,148.00
2594.25,127.00
2595.41,84.00
2596.56,95.00
2597.72,105.00
2598.88,116.00
2600.03,116.00
2601.19,148.00
2602.34,128.00
2603.50,95.00
2604.65,85.00
2605.80,95.00
2606.95,95.00
2608.10,85.00
2609.25,117.00
2610.40,106.00
2611.55,85.00
2612.70,105.00
2613.84,148.00
2614.99,106.00
2616.13,106.00
2617.28,127.00
2618.42,84.00
2619.56,95.00
2620.71,95.00
2621.85,85.00
2622.99,106.00
2624.13,138.00
2625.27,106.00
2626.40,85.00
2627.54,64.00
2628.68,106.00
2629.81,148.00
2630.95,149.00
2632.08,105.00
2633.22,106.00
2634.35,74.00
2635.48,127.00
2636.61,127.00
2637.74,106.00
2638.87,85.00
2640.00,106.00
2641.13,106.00
2642.26,106.00
2643.39,85.00
2644.51,95.00
2645.64,85.00
2646.76,63.00
2647.89,95.00
2649.01,85.00
2650.13,127.00
2651.25,74.00
2652.38,106.00
2653.50,64.00
2654.62,64.00
2655.73,64.00
2656.85,53.00
2657.97,74.00
2659.09,84.00
2660.20,127.00
2661.32,95.00
2662.43,95.00
2663.55,74.00
2664.66,42.00
2665.77,85.00
2666.88,84.00
2667.99,96.00
2669.10,74.00
2670.21,64.00
2671.32,63.00
2672.43,63.00
2673.54,138.00
2674.64,117.00
2675.75,95.00
2676.85,64.00
2677.96,63.00
2679.06,85.00
2680.16,85.00
2681.26,85.00
2682.37,85.00
2683.47,84.00
2684.57,53.00
2685.66,85.00
2686.76,148.00
2687.86,148.00
2688.96,116.00
2690.05,85.00
2691.15,42.00
2692.24,53.00
2693.34,85.00
2694.43,85.00
2695.52,64.00
2696.62,95.00
2697.71,106.00
2698.80,84.00
2699.89,85.00
2700.98,85.00
2702.06,74.00
2703.15,53.00
2704.24,11.00
2705.32,21.00
2706.41,85.00
2707.49,85.00
2708.58,85.00
2709.66,74.00
2710.74,74.00
2711.83,74.00
2712.91,85.00
2713.99,106.00
2715.07,148.00
2716.15,116.00
2717.22,85.00
2718.30,85.00
2719.38,84.00
2720.45,106.00
2721.53,84.00
2722.60,95.00
2723.68,64.00
2724.75,64.00
2725.82,117.00
2726.89,138.00
2727.97,138.00
2729.04,169.00
2730.11,117.00
2731.17,106.00
2732.24,106.00
2733.31,106.00
2734.38,74.00
2735.44,63.00
2736.51,116.00
2737.57,106.00
2738.64,53.00
2739.70,106.00
2740.76,32.00
2741.82,53.00
2742.89,43.00
2743.95,85.00
2745.01,74.00
2746.07,21.00
2747.12,42.00
2748.18,32.00
2749.24,84.00
2750.29,106.00
2751.35,128.00
2752.40,127.00
2753.46,116.00
2754.51,116.00
2755.57,63.00
2756.62,64.00
2757.67,64.00
2758.72,85.00
2759.77,74.00
2760.82,53.00
2761.87,63.00
2762.91,106.00
2763.96,85.00
2765.01,85.00
2766.05,85.00
2767.10,42.00
2768.14,53.00
2769.19,42.00
2770.23,53.00
2771.27,53.00
2772.31,75.00
2773.35,85.00
2774.40,64.00
2775.43,74.00
2776.47,85.00
2777.51,63.00
2778.55,85.00
2779.59,64.00
2780.62,63.00
2781.66,42.00
2782.69,84.00
2783.73,84.00
2784.76,32.00
2785.79,42.00
2786.82,84.00
2787.85,74.00
2788.89,74.00
2789.92,64.00
2790.94,63.00
2791.97,63.00
2793.00,42.00
2794.03,43.00
2795.05,21.00
2796.08,43.00
2797.11,63.00
2798.13,64.00
2799.15,43.00
2800.18,63.00
2801.20,85.00
2802.22,64.00
2803.24,53.00
2804.26,63.00
2805.28,85.00
2806.30,64.00
2807.32,95.00
2808.34,74.00
2809.35,64.00
2810.37,53.00
2811.39,53.00
2812.40,85.00
2813.41,74.00
2814.43,64.00
2815.44,106.00
2816.45,127.00
2817.46,85.00
2818.48,106.00
2819.49,85.00
2820.49,63.00
2821.50,84.00
2822.51,84.00
2823.52,64.00
2824.53,85.00
2825.53,64.00
2826.54,85.00
2827.54,63.00
2828.55,11.00
2829.55,0.00
2830.55,21.00
2831.55,53.00
2832.56,74.00
2833.56,74.00
2834.56,64.00
2835.56,52.00
2836.56,106.00
2837.55,64.00
2838.55,53.00
2839.55,75.00
2840.54,21.00
2841.54,21.00
2842.53,64.00
2843.53,63.00
2844.52,95.00
2845.51,106.00
2846.51,32.00
2847.50,42.00
2848.49,63.00
2849.48,42.00
2850.47,53.00
2851.46,74.00
2852.45,63.00
2853.43,64.00
2854.42,127.00
2855.41,74.00
2856.39,32.00
2857.38,21.00
2858.36,22.00
2859.34,21.00
2860.33,42.00
2861.31,21.00
2862.29,85.00
2863.27,63.00
2864.25,43.00
2865.23,63.00
2866.21,43.00
2867.19,43.00
2868.17,43.00
2869.14,64.00
2870.12,64.00
2871.09,84.00
2872.07,74.00
2873.04,32.00
2874.02,21.00
2874.99,74.00
2875.96,74.00
2876.93,43.00
2877.91,11.00
2878.88,21.00
2879.85,31.00
2880.82,21.00
2881.78,21.00
2882.75,22.00
2883.72,42.00
2884.69,53.00
2885.65,75.00
2886.62,63.00
2887.58,64.00
2888.55,95.00
2889.51,42.00
2890.47,42.00
2891.43,10.00
2892.39,53.00
2893.36,84.00
2894.31,64.00
2895.27,21.00
2896.23,42.00
2897.19,53.00
2898.15,53.00
2899.11,63.00
2900.06,85.00
2901.02,63.00
2901.97,42.00
2902.93,11.00
2903.88,-11.00
2904.83,53.00
2905.79,74.00
2906.74,32.00
2907.69,21.00
2908.64,42.00
2909.59,32.00
2910.54,42.00
2911.49,64.00
2912.43,21.00
2913.38,53.00
2914.33,53.00
2915.27,32.00
2916.22,106.00
2917.16,106.00
2918.11,85.00
2919.05,11.00
2919.99,21.00
2920.94,64.00
2921.88,117.00
2922.82,84.00
2923.76,53.00
2924.70,-42.00
2925.64,-64.00
2926.58,11.00
2927.51,63.00
2928.45,74.00
2929.39,63.00
2930.32,42.00
2931.26,43.00
2932.19,63.00
2933.13,42.00
2934.06,11.00
2934.99,10.00
2935.92,21.00
2936.86,42.00
2937.79,84.00
2938.72,84.00
2939.65,63.00
2940.57,32.00
2941.50,43.00
2942.43,106.00
2943.36,106.00
2944.28,85.00
2945.21,43.00
2946.13,21.00
2947.06,64.00
2947.98,64.00
2948.91,74.00
2949.83,85.00
2950.75,32.00
2951.67,53.00
2952.59,42.00
2953.51,43.00
2954.43,85.00
2955.35,96.00
2956.27,75.00
2957.19,21.00
2958.10,0.00
2959.02,32.00
2959.94,32.00
2960.85,53.00
2961.77,74.00
2962.68,42.00
2963.59,42.00
2964.51,64.00
2965.42,63.00
2966.33,63.00
2967.24,74.00
2968.15,85.00
2969.06,75.00
2969.97,75.00
2970.88,85.00
2971.78,42.00
2972.69,42.00
2973.60,64.00
2974.50,84.00
2975.41,95.00
2976.31,95.00
2977.22,63.00
2978.12,74.00
2979.02,85.00
2979.93,85.00
2980.83,0.00
2981.73,21.00
2982.63,22.00
2983.53,32.00
2984.43,42.00
2985.33,42.00
2986.22,21.00
2987.12,52.00
2988.02,53.00
2988.91,32.00
2989.81,0.00
2990.70,42.00
2991.60,22.00
2992.49,32.00
2993.38,42.00
2994.28,43.00
2995.17,53.00
2996.06,42.00
2996.95,53.00
2997.84,42.00
2998.73,74.00
2999.62,106.00
3000.51,64.00
3001.40,53.00
3002.28,32.00
3003.17,42.00
3004.05,63.00
3004.94,106.00
3005.82,32.00
3006.71,31.00
3007.59,10.00
3008.47,0.00
3009.36,10.00
3010.24,0.00
3011.12,11.00
3012.00,63.00
3012.88,42.00
3013.76,43.00
3014.64,32.00
3015.51,42.00
3016.39,22.00
3017.27,63.00
3018.14,21.00
3019.02,42.00
3019.89,74.00
3020.77,64.00
3021.64,42.00
3022.52,21.00
3023.39,0.00
3024.26,-10.00
3025.13,31.00
3026.00,74.00
3026.87,85.00
3027.74,85.00
3028.61,85.00
3029.48,42.00
3030.35,32.00
3031.21,-21.00
3032.08,-21.00
3032.95,63.00
3033.81,42.00
3034.68,43.00
3035.54,42.00
3036.40,53.00
3037.27,43.00
3038.13,85.00
3038.99,32.00
3039.85,53.00
3040.71,0.00
3041.57,64.00
3042.43,43.00
3043.29,32.00
3044.15,42.00
3045.01,32.00
3045.86,21.00
3046.72,42.00
3047.58,106.00
3048.43,106.00
3049.29,84.00
3050.14,84.00
3050.99,74.00
3051.85,64.00
3052.70,10.00
3053.55,43.00
3054.40,53.00
3055.25,22.00
3056.10,21.00
3056.95,42.00
3057.80,32.00
3058.65,32.00
3059.50,21.00
3060.34,64.00
3061.19,32.00
3062.04,21.00
3062.88,42.00
3063.73,21.00
3064.57,32.00
3065.42,84.00
3066.26,74.00
3067.10,0.00
3067.94,-42.00
3068.78,21.00
3069.63,42.00
3070.47,42.00
3071.31,31.00
3072.14,105.00
3072.98,64.00
3073.82,21.00
3074.66,32.00
3075.49,43.00
3076.33,53.00
3077.17,21.00
3078.00,42.00
3078.83,22.00
3079.67,31.00
3080.50,53.00
3081.33,43.00
3082.17,43.00
3083.00,95.00
3083.83,42.00
3084.66,21.00
3085.49,22.00
3086.32,42.00
3087.15,32.00
3087.97,-11.00
3088.80,-32.00
3089.63,21.00
3090.46,96.00
3091.28,84.00
3092.11,42.00
3092.93,43.00
3093.75,22.00
3094.58,21.00
3095.40,-21.00
3096.22,31.00
3097.05,42.00
3097.87,11.00
3098.69,43.00
3099.51,32.00
3100.33,10.00
3101.15,-42.00
3101.96,-32.00
3102.78,-22.00
3103.60,-11.00
3104.42,-21.00
3105.23,-32.00
3106.05,21.00
3106.86,0.00
3107.68,0.00
3108.49,-11.00
3109.30,-43.00
3110.12,21.00
3110.93,32.00
3111.74,11.00
3112.55,32.00
3113.36,42.00
3114.17,74.00
3114.98,42.00
3115.79,-21.00
3116.60,42.00
3117.40,53.00
3118.21,74.00
3119.02,74.00
3119.82,10.00
3120.63,10.00
3121.43,43.00
3122.24,42.00
3123.04,0.00
3123.84,53.00
3124.65,31.00
3125.45,0.00
3126.25,32.00
3127.05,-21.00
3127.85,10.00
3128.65,10.00
3129.45,31.00
3130.25,43.00
3131.05,32.00
3131.84,42.00
3132.64,53.00
3133.44,22.00
3134.23,21.00
3135.03,0.00
3135.82,0.00
3136.62,43.00
3137.41,0.00
3138.20,0.00
3139.00,52.00
3139.79,-42.00
3140.58,-32.00
3141.37,21.00
3142.16,52.00
3142.95,64.00
3143.74,22.00
3144.53,11.00
3145.32,0.00
3146.10,11.00
3146.89,64.00
3147.68,31.00
3148.46,-53.00
3149.25,-74.00
3150.03,-11.00
3150.82,42.00
3151.60,21.00
3152.38,42.00
3153.17,95.00
3153.95,22.00
3154.73,-21.00
3155.51,43.00
3156.29,42.00
3157.07,53.00
3157.85,74.00
3158.63,43.00
3159.41,-10.00
3160.18,0.00
3160.96,42.00
3161.74,63.00
3162.51,42.00
3163.29,21.00
3164.06,21.00
3164.84,32.00
3165.61,0.00
3166.38,0.00
3167.16,0.00
3167.93,43.00
3168.70,10.00
3169.47,0.00
3170.24,-21.00
3171.01,-10.00
3171.78,11.00
3172.55,0.00
3173.32,-11.00
3174.09,21.00
3174.85,11.00
3175.62,0.00
3176.39,-21.00
3177.15,0.00
3177.92,43.00
3178.68,64.00
3179.45,64.00
3180.21,64.00
3180.97,-10.00
3181.73,0.00
3182.50,22.00
3183.26,31.00
3184.02,0.00
3184.78,63.00
3185.54,53.00
3186.30,21.00
3187.05,0.00
3187.81,21.00
3188.57,42.00
3189.33,53.00
3190.08,0.00
3190.84,21.00
3191.59,42.00
3192.35,64.00
3193.10,32.00
3193.86,0.00
3194.61,0.00
3195.36,0.00
3196.12,0.00
3196.87,10.00
3197.62,21.00
3198.37,42.00
3199.12,53.00
3199.87,63.00
3200.62,74.00
3201.36,21.00
3202.11,-32.00
3202.86,32.00
3203.61,43.00
3204.35,-53.00
3205.10,11.00
3205.84,21.00
3206.59,11.00
3207.33,-21.00
3208.08,11.00
3208.82,-10.00
3209.56,10.00
3210.30,11.00
3211.05,0.00
3211.79,21.00
3212.53,10.00
3213.27,11.00
3214.01,11.00
3214.75,-32.00
3215.48,-43.00
3216.22,21.00
3216.96,32.00
3217.69,-21.00
3218.43,0.00
3219.17,0.00
3219.90,-10.00
3220.64,-21.00
3221.37,0.00
3222.10,-11.00
3222.84,64.00
3223.57,64.00
3224.30,0.00
3225.03,-53.00
3225.76,-53.00
3226.49,0.00
3227.22,0.00
3227.95,42.00
3228.68,22.00
3229.41,43.00
3230.14,32.00
3230.87,0.00
3231.59,53.00
3232.32,43.00
3233.04,11.00
3233.77,-32.00
3234.49,0.00
3235.22,21.00
3235.94,10.00
3236.66,-32.00
3237.39,21.00
3238.11,31.00
3238.83,21.00
3239.55,11.00
3240.27,32.00
3240.99,42.00
3241.71,64.00
3242.43,21.00
3243.15,-11.00
3243.87,-21.00
3244.58,32.00
3245.30,31.00
3246.02,43.00
3246.73,31.00
3247.45,0.00
3248.16,21.00
3248.88,0.00
3249.59,-10.00
3250.30,0.00
3251.01,-42.00
3251.73,-43.00
3252.44,0.00
3253.15,0.00
3253.86,21.00
3254.57,-21.00
3255.28,-10.00
3255.99,-31.00
3256.70,-63.00
3257.41,-21.00
3258.11,42.00
3258.82,63.00
3259.53,43.00
3260.23,32.00
3260.94,0.00
3261.64,53.00
3262.35,21.00
3263.05,-32.00
3263.76,-21.00
3264.46,-53.00
3265.16,-43.00
3265.86,-21.00
3266.56,22.00
3267.26,74.00
3267.97,63.00
3268.67,22.00
3269.36,0.00
3270.06,-32.00
3270.76,-95.00
3271.46,-64.00
3272.16,0.00
3272.85,0.00
