RamanShift,Intensity
180.91,386.00
183.74,476.00
186.56,551.00
189.39,857.00
192.21,1261.00
195.03,1853.00
197.84,2658.00
200.66,3865.00
203.47,5199.00
206.28,6523.00
209.09,7740.00
211.89,8852.00
214.70,9890.00
217.50,10780.00
220.30,11256.00
223.10,11404.00
225.89,11733.00
228.69,11913.00
231.48,12029.00
234.27,12273.00
237.05,12273.00
239.84,12389.00
242.62,12178.00
245.40,12029.00
248.18,12051.00
250.96,12071.00
253.73,11902.00
256.51,11743.00
259.28,11500.00
262.05,11468.00
264.81,11489.00
267.58,11478.00
270.34,11500.00
273.10,11320.00
275.86,11172.00
278.61,11161.00
281.37,11235.00
284.12,11171.00
286.87,11246.00
289.62,11204.00
292.36,11119.00
295.11,11203.00
297.85,11330.00
300.59,11193.00
303.33,11118.00
306.06,11139.00
308.80,11256.00
311.53,11235.00
314.26,11087.00
316.99,11108.00
319.71,11087.00
322.44,11119.00
325.16,11203.00
327.88,11087.00
330.59,11119.00
333.31,11076.00
336.02,10992.00
338.73,10991.00
341.44,11055.00
344.15,11034.00
346.86,10992.00
349.56,11066.00
352.26,11076.00
354.96,11129.00
357.66,11076.00
360.35,11024.00
363.05,11214.00
365.74,11225.00
368.43,11214.00
371.12,11394.00
373.80,11521.00
376.48,11384.00
379.17,11415.00
381.85,11638.00
384.52,11595.00
387.20,11468.00
389.87,11436.00
392.54,11521.00
395.21,11690.00
397.88,11617.00
400.55,11510.00
403.21,11458.00
405.87,11447.00
408.53,11521.00
411.19,11553.00
413.84,11500.00
416.50,11394.00
419.15,11436.00
421.80,11383.00
424.45,11267.00
427.10,11384.00
429.74,11542.00
432.38,11531.00
435.02,11479.00
437.66,11457.00
440.30,11510.00
442.93,11415.00
445.56,11331.00
448.19,11489.00
450.82,11606.00
453.45,11574.00
456.07,11458.00
458.70,11457.00
461.32,11500.00
463.94,11447.00
466.55,11564.00
469.17,11659.00
471.78,11638.00
474.39,11510.00
477.00,11437.00
479.61,11468.00
482.22,11468.00
484.82,11415.00
487.42,11351.00
490.02,11309.00
492.62,11394.00
495.21,11479.00
497.81,11436.00
500.40,11341.00
502.99,11288.00
505.58,11193.00
508.17,11256.00
510.75,11310.00
513.33,11182.00
515.91,11140.00
518.49,11172.00
521.07,11129.00
523.65,11246.00
526.22,11214.00
528.79,11182.00
531.36,11097.00
533.93,11076.00
536.49,11076.00
539.06,11087.00
541.62,10992.00
544.18,11013.00
546.74,11013.00
549.30,10981.00
551.85,10864.00
554.40,10886.00
556.95,11066.00
559.50,11076.00
562.05,10971.00
564.59,10854.00
567.14,10716.00
569.68,10790.00
572.22,10981.00
574.76,10971.00
577.29,10928.00
579.83,10885.00
582.36,10748.00
584.89,10547.00
587.42,10611.00
589.95,10600.00
592.47,10600.00
594.99,10599.00
597.52,10430.00
600.04,10410.00
602.55,10483.00
605.07,10388.00
607.58,10367.00
610.09,10420.00
612.60,10335.00
615.11,10251.00
617.62,10283.00
620.12,10293.00
622.63,10219.00
625.13,10208.00
627.63,10229.00
630.13,10155.00
632.62,10028.00
635.12,10049.00
637.61,10081.00
640.10,10134.00
642.59,10007.00
645.07,9900.00
647.56,9943.00
650.04,9912.00
652.52,9891.00
655.00,9997.00
657.48,9901.00
659.96,9817.00
662.43,9816.00
664.90,9742.00
667.37,9795.00
669.84,9880.00
672.31,9859.00
674.78,9795.00
677.24,9711.00
679.70,9604.00
682.16,9583.00
684.62,9636.00
687.08,9668.00
689.53,9785.00
691.98,9678.00
694.43,9700.00
696.88,9679.00
699.33,9647.00
701.78,9541.00
704.22,9434.00
706.66,9329.00
709.10,9434.00
711.54,9435.00
713.98,9372.00
716.42,9361.00
718.85,9403.00
721.28,9393.00
723.71,9477.00
726.14,9710.00
728.57,9837.00
730.99,9753.00
733.41,9679.00
735.83,9647.00
738.25,9519.00
740.67,9445.00
743.09,9308.00
745.50,9139.00
747.91,9021.00
750.33,8979.00
752.73,8938.00
755.14,8916.00
757.55,8906.00
759.95,8736.00
762.35,8768.00
764.75,8820.00
767.15,8821.00
769.55,8758.00
771.95,8821.00
774.34,8746.00
776.73,8725.00
779.12,8651.00
781.51,8672.00
783.90,8662.00
786.28,8694.00
788.67,8768.00
791.05,8672.00
793.43,8566.00
795.80,8492.00
798.18,8577.00
800.56,8545.00
802.93,8460.00
805.30,8567.00
807.67,8482.00
810.04,8439.00
812.40,8387.00
814.77,8333.00
817.13,8419.00
819.49,8418.00
821.85,8260.00
824.21,8153.00
826.57,8175.00
828.92,8175.00
831.27,8164.00
833.63,8016.00
835.98,8005.00
838.32,8037.00
840.67,8048.00
843.01,8111.00
845.36,8038.00
847.70,7889.00
850.04,7920.00
852.37,8016.00
854.71,7942.00
857.05,7826.00
859.38,7751.00
861.71,7847.00
864.04,7741.00
866.37,7635.00
868.69,7646.00
871.02,7741.00
873.34,7846.00
875.66,7687.00
877.98,7582.00
880.30,7635.00
882.62,7603.00
884.93,7646.00
887.24,7593.00
889.55,7476.00
891.86,7455.00
894.17,7550.00
896.48,7529.00
898.78,7592.00
901.09,7529.00
903.39,7497.00
905.69,7518.00
907.99,7487.00
910.28,7327.00
912.58,7412.00
914.87,7317.00
917.16,7307.00
919.45,7381.00
921.74,7338.00
924.03,7349.00
926.31,7338.00
928.60,7212.00
930.88,7179.00
933.16,7190.00
935.44,7169.00
937.72,7190.00
939.99,7116.00
942.26,7095.00
944.54,7179.00
946.81,7106.00
949.08,7031.00
951.34,7095.00
953.61,7106.00
955.87,7084.00
958.14,6958.00
960.40,6873.00
962.66,6957.00
964.92,7020.00
967.17,7010.00
969.43,6978.00
971.68,6904.00
973.93,6809.00
976.18,6809.00
978.43,6745.00
980.68,6714.00
982.92,6671.00
985.17,6629.00
987.41,6629.00
989.65,6650.00
991.89,6608.00
994.12,6608.00
996.36,6618.00
998.59,6544.00
1000.83,6449.00
1003.06,6438.00
1005.29,6513.00
1007.51,6523.00
1009.74,6555.00
1011.97,6565.00
1014.19,6513.00
1016.41,6534.00
1018.63,6513.00
1020.85,6438.00
1023.07,6417.00
1025.28,6417.00
1027.49,6353.00
1029.71,6396.00
1031.92,6512.00
1034.13,6523.00
1036.33,6375.00
1038.54,6353.00
1040.74,6385.00
1042.95,6322.00
1045.15,6237.00
1047.35,6258.00
1049.55,6290.00
1051.74,6279.00
1053.94,6205.00
1056.13,6216.00
1058.32,6174.00
1060.51,6110.00
1062.70,6110.00
1064.89,6237.00
1067.08,6215.00
1069.26,6153.00
1071.44,6194.00
1073.63,6195.00
1075.81,6078.00
1077.98,6067.00
1080.16,6036.00
1082.34,5983.00
1084.51,6015.00
1086.68,6057.00
1088.85,6078.00
1091.02,6036.00
1093.19,5994.00
1095.35,6025.00
1097.52,5951.00
1099.68,5845.00
1101.84,5846.00
1104.00,5908.00
1106.16,5899.00
1108.32,5782.00
1110.48,5793.00
1112.63,5835.00
1114.78,5782.00
1116.93,5792.00
1119.08,5782.00
1121.23,5750.00
1123.38,5676.00
1125.52,5654.00
1127.67,5665.00
1129.81,5634.00
1131.95,5644.00
1134.09,5686.00
1136.22,5633.00
1138.36,5538.00
1140.50,5517.00
1142.63,5538.00
1144.76,5549.00
1146.89,5538.00
1149.02,5517.00
1151.15,5517.00
1153.27,5496.00
1155.40,5495.00
1157.52,5411.00
1159.64,5432.00
1161.76,5369.00
1163.88,5348.00
1165.99,5390.00
1168.11,5411.00
1170.22,5368.00
1172.34,5337.00
1174.45,5305.00
1176.56,5284.00
1178.66,5316.00
1180.77,5294.00
1182.88,5369.00
1184.98,5316.00
1187.08,5327.00
1189.18,5326.00
1191.28,5252.00
1193.38,5199.00
1195.47,5167.00
1197.57,5114.00
1199.66,5157.00
1201.75,5189.00
1203.85,5167.00
1205.93,5083.00
1208.02,5157.00
1210.11,5178.00
1212.19,5189.00
1214.28,5210.00
1216.36,5221.00
1218.44,5262.00
1220.52,5199.00
1222.59,5136.00
1224.67,4998.00
1226.74,5125.00
1228.82,5135.00
1230.89,5061.00
1232.96,5093.00
1235.03,5061.00
1237.10,4999.00
1239.16,5019.00
1241.23,5093.00
1243.29,5115.00
1245.35,5083.00
1247.41,5083.00
1249.47,5009.00
1251.53,4977.00
1253.58,4998.00
1255.64,4924.00
1257.69,4881.00
1259.74,4892.00
1261.79,4839.00
1263.84,4882.00
1265.89,4945.00
1267.93,4935.00
1269.98,4903.00
1272.02,4839.00
1274.06,4776.00
1276.10,4786.00
1278.14,4776.00
1280.18,4734.00
1282.22,4733.00
1284.25,4649.00
1286.28,4627.00
1288.32,4681.00
1290.35,4607.00
1292.38,4553.00
1294.40,4564.00
1296.43,4628.00
1298.46,4648.00
1300.48,4564.00
1302.50,4574.00
1304.52,4596.00
1306.54,4553.00
1308.56,4553.00
1310.58,4628.00
1312.59,4617.00
1314.60,4607.00
1316.62,4564.00
1318.63,4648.00
1320.64,4818.00
1322.65,4766.00
1324.65,4691.00
1326.66,4754.00
1328.66,4797.00
1330.66,4786.00
1332.67,4734.00
1334.67,4712.00
1336.66,4691.00
1338.66,4702.00
1340.66,4765.00
1342.65,4628.00
1344.65,4543.00
1346.64,4628.00
1348.63,4606.00
1350.62,4522.00
1352.60,4500.00
1354.59,4480.00
1356.57,4490.00
1358.56,4480.00
1360.54,4342.00
1362.52,4373.00
1364.50,4374.00
1366.48,4352.00
1368.46,4310.00
1370.43,4352.00
1372.41,4331.00
1374.38,4268.00
1376.35,4257.00
1378.32,4257.00
1380.29,4342.00
1382.25,4405.00
1384.22,4310.00
1386.18,4204.00
1388.15,4246.00
1390.11,4310.00
1392.07,4225.00
1394.03,4246.00
1395.99,4246.00
1397.94,4225.00
1399.90,4183.00
1401.85,4183.00
1403.80,4119.00
1405.76,4183.00
1407.71,4215.00
1409.65,4268.00
1411.60,4183.00
1413.55,4098.00
1415.49,4077.00
1417.44,4034.00
1419.38,4045.00
1421.32,4024.00
1423.26,4013.00
1425.19,4013.00
1427.13,4055.00
1429.07,3992.00
1431.00,3961.00
1432.93,4003.00
1434.86,4024.00
1436.79,4013.00
1438.72,3949.00
1440.65,4024.00
1442.57,3971.00
1444.50,3833.00
1446.42,3822.00
1448.34,3887.00
1450.26,3949.00
1452.18,3918.00
1454.10,3844.00
1456.02,3813.00
1457.93,3844.00
1459.85,3844.00
1461.76,3823.00
1463.67,3781.00
1465.58,3801.00
1467.49,3791.00
1469.40,3749.00
1471.31,3780.00
1473.21,3822.00
1475.11,3770.00
1477.02,3738.00
1478.92,3801.00
1480.82,3801.00
1482.72,3738.00
1484.61,3664.00
1486.51,3653.00
1488.40,3653.00
1490.30,3579.00
1492.19,3611.00
1494.08,3558.00
1495.97,3527.00
1497.86,3600.00
1499.74,3663.00
1501.63,3653.00
1503.51,3600.00
1505.40,3600.00
1507.28,3653.00
1509.16,3579.00
1511.04,3611.00
1512.92,3622.00
1514.79,3537.00
1516.67,3547.00
1518.54,3526.00
1520.42,3590.00
1522.29,3526.00
1524.16,3452.00
1526.03,3463.00
1527.89,3505.00
1529.76,3505.00
1531.63,3463.00
1533.49,3537.00
1535.35,3484.00
1537.21,3453.00
1539.07,3474.00
1540.93,3515.00
1542.79,3442.00
1544.65,3388.00
1546.50,3367.00
1548.36,3367.00
1550.21,3356.00
1552.06,3378.00
1553.91,3399.00
1555.76,3357.00
1557.61,3399.00
1559.45,3431.00
1561.30,3346.00
1563.14,3325.00
1564.98,3272.00
1566.82,3230.00
1568.67,3282.00
1570.50,3209.00
1572.34,3272.00
1574.18,3346.00
1576.01,3336.00
1577.85,3304.00
1579.68,3261.00
1581.51,3272.00
1583.34,3262.00
1585.17,3209.00
1587.00,3198.00
1588.82,3198.00
1590.65,3209.00
1592.47,3145.00
1594.30,3135.00
1596.12,3156.00
1597.94,3220.00
1599.76,3145.00
1601.57,3177.00
1603.39,3230.00
1605.21,3177.00
1607.02,3124.00
1608.83,3049.00
1610.64,3061.00
1612.45,3039.00
1614.26,3081.00
1616.07,3124.00
1617.88,3123.00
1619.68,3082.00
1621.49,3039.00
1623.29,3039.00
1625.09,3017.00
1626.89,2986.00
1628.69,2965.00
1630.49,2976.00
1632.29,2976.00
1634.08,2965.00
1635.88,2955.00
1637.67,2912.00
1639.46,2912.00
1641.25,2901.00
1643.04,2923.00
1644.83,2944.00
1646.62,2891.00
1648.41,2901.00
1650.19,2891.00
1651.97,2881.00
1653.76,2860.00
1655.54,2881.00
1657.32,2902.00
1659.10,2838.00
1660.88,2796.00
1662.65,2785.00
1664.43,2837.00
1666.20,2869.00
1667.97,2795.00
1669.75,2742.00
1671.52,2732.00
1673.29,2690.00
1675.05,2700.00
1676.82,2775.00
1678.59,2796.00
1680.35,2753.00
1682.11,2711.00
1683.88,2689.00
1685.64,2679.00
1687.40,2657.00
1689.16,2689.00
1690.91,2700.00
1692.67,2721.00
1694.42,2711.00
1696.18,2615.00
1697.93,2584.00
1699.68,2605.00
1701.43,2690.00
1703.18,2647.00
1704.93,2573.00
1706.68,2583.00
1708.42,2637.00
1710.17,2626.00
1711.91,2563.00
1713.65,2584.00
1715.39,2594.00
1717.13,2562.00
1718.87,2542.00
1720.61,2531.00
1722.35,2489.00
1724.08,2562.00
1725.81,2489.00
1727.55,2499.00
1729.28,2478.00
1731.01,2478.00
1732.74,2478.00
1734.47,2436.00
1736.19,2446.00
1737.92,2414.00
1739.64,2414.00
1741.37,2414.00
1743.09,2404.00
1744.81,2467.00
1746.53,2488.00
1748.25,2489.00
1749.97,2436.00
1751.68,2403.00
1753.40,2425.00
1755.11,2424.00
1756.83,2319.00
1758.54,2277.00
1760.25,2245.00
1761.96,2351.00
1763.67,2330.00
1765.38,2330.00
1767.08,2372.00
1768.79,2308.00
1770.49,2298.00
1772.19,2287.00
1773.90,2287.00
1775.60,2298.00
1777.30,2329.00
1778.99,2351.00
1780.69,2330.00
1782.39,2298.00
1784.08,2287.00
1785.78,2287.00
1787.47,2256.00
1789.16,2213.00
1790.85,2256.00
1792.54,2245.00
1794.23,2287.00
1795.91,2288.00
1797.60,2213.00
1799.28,2181.00
1800.97,2182.00
1802.65,2139.00
1804.33,2139.00
1806.01,2171.00
1807.69,2202.00
1809.37,2235.00
1811.05,2245.00
1812.72,2192.00
1814.40,2192.00
1816.07,2203.00
1817.74,2171.00
1819.41,2160.00
1821.08,2075.00
1822.75,2097.00
1824.42,2139.00
1826.09,2181.00
1827.75,2171.00
1829.42,2139.00
1831.08,2160.00
1832.74,2150.00
1834.40,2150.00
1836.06,2160.00
1837.72,2065.00
1839.38,2118.00
1841.04,2108.00
1842.69,2139.00
1844.35,2160.00
1846.00,2086.00
1847.65,2065.00
1849.30,2055.00
1850.95,2022.00
1852.60,2012.00
1854.25,1990.00
1855.90,2012.00
1857.54,1970.00
1859.19,1959.00
1860.83,2002.00
1862.47,2001.00
1864.12,1991.00
1865.76,1948.00
1867.40,2054.00
1869.03,2054.00
1870.67,2012.00
1872.31,1959.00
1873.94,1927.00
1875.57,1938.00
1877.21,1969.00
1878.84,1969.00
1880.47,1937.00
1882.10,1906.00
1883.73,1853.00
1885.35,1885.00
1886.98,1927.00
1888.61,1959.00
1890.23,1907.00
1891.85,1843.00
1893.47,1864.00
1895.09,1937.00
1896.71,1938.00
1898.33,1864.00
1899.95,1853.00
1901.57,1843.00
1903.18,1748.00
1904.80,1801.00
1906.41,1821.00
1908.02,1822.00
1909.63,1822.00
1911.24,1801.00
1912.85,1822.00
1914.46,1811.00
1916.07,1821.00
1917.67,1726.00
1919.28,1758.00
1920.88,1768.00
1922.48,1789.00
1924.08,1800.00
1925.68,1736.00
1927.28,1779.00
1928.88,1800.00
1930.48,1779.00
1932.07,1769.00
1933.67,1715.00
1935.26,1715.00
1936.86,1694.00
1938.45,1715.00
1940.04,1715.00
1941.63,1684.00
1943.22,1673.00
1944.80,1694.00
1946.39,1610.00
1947.98,1610.00
1949.56,1694.00
1951.14,1642.00
1952.73,1641.00
1954.31,1694.00
1955.89,1610.00
1957.47,1599.00
1959.05,1641.00
1960.62,1652.00
1962.20,1599.00
1963.77,1609.00
1965.35,1577.00
1966.92,1599.00
1968.49,1673.00
1970.06,1673.00
1971.63,1652.00
1973.20,1620.00
1974.77,1673.00
1976.34,1599.00
1977.90,1620.00
1979.47,1630.00
1981.03,1546.00
1982.59,1546.00
1984.15,1589.00
1985.71,1589.00
1987.27,1589.00
1988.83,1599.00
1990.39,1578.00
1991.94,1599.00
1993.50,1567.00
1995.05,1557.00
1996.61,1567.00
1998.16,1567.00
1999.71,1589.00
2001.26,1568.00
2002.81,1546.00
2004.36,1557.00
2005.91,1546.00
2007.45,1546.00
2009.00,1483.00
2010.54,1472.00
2012.08,1546.00
2013.62,1609.00
2015.17,1589.00
2016.71,1503.00
2018.24,1472.00
2019.78,1493.00
2021.32,1525.00
2022.85,1557.00
2024.39,1461.00
2025.92,1472.00
2027.46,1556.00
2028.99,1504.00
2030.52,1483.00
2032.05,1440.00
2033.58,1451.00
2035.10,1483.00
2036.63,1493.00
2038.16,1483.00
2039.68,1525.00
2041.21,1514.00
2042.73,1441.00
2044.25,1482.00
2045.77,1493.00
2047.29,1493.00
2048.81,1419.00
2050.33,1408.00
2051.84,1387.00
2053.36,1419.00
2054.87,1355.00
2056.39,1334.00
2057.90,1334.00
2059.41,1366.00
2060.92,1376.00
2062.43,1398.00
2063.94,1398.00
2065.45,1397.00
2066.95,1356.00
2068.46,1270.00
2069.96,1313.00
2071.47,1355.00
2072.97,1335.00
2074.47,1334.00
2075.97,1366.00
2077.47,1398.00
2078.97,1387.00
2080.47,1355.00
2081.96,1313.00
2083.46,1281.00
2084.95,1313.00
2086.45,1324.00
2087.94,1260.00
2089.43,1271.00
2090.92,1250.00
2092.41,1271.00
2093.90,1239.00
2095.39,1271.00
2096.88,1270.00
2098.36,1292.00
2099.85,1303.00
2101.33,1207.00
2102.81,1207.00
2104.30,1228.00
2105.78,1250.00
2107.26,1228.00
2108.74,1197.00
2110.21,1239.00
2111.69,1250.00
2113.17,1207.00
2114.64,1186.00
2116.12,1218.00
2117.59,1229.00
2119.06,1217.00
2120.53,1133.00
2122.00,1143.00
2123.47,1196.00
2124.94,1165.00
2126.41,1208.00
2127.87,1186.00
2129.34,1154.00
2130.80,1155.00
2132.27,1164.00
2133.73,1186.00
2135.19,1186.00
2136.65,1133.00
2138.11,1122.00
2139.57,1165.00
2141.03,1186.00
2142.48,1217.00
2143.94,1165.00
2145.39,1123.00
2146.85,1155.00
2148.30,1123.00
2149.75,1133.00
2151.20,1175.00
2152.65,1186.00
2154.10,1165.00
2155.55,1123.00
2157.00,1080.00
2158.44,1090.00
2159.89,1091.00
2161.33,1059.00
2162.78,1112.00
2164.22,1048.00
2165.66,1048.00
2167.10,1101.00
2168.54,1112.00
2169.98,1123.00
2171.42,1101.00
2172.85,1091.00
2174.29,1102.00
2175.72,1101.00
2177.16,1091.00
2178.59,1070.00
2180.02,1070.00
2181.45,1080.00
2182.88,1070.00
2184.31,1111.00
2185.74,1090.00
2187.17,1080.00
2188.59,1080.00
2190.02,1038.00
2191.44,1038.00
2192.87,1006.00
2194.29,975.00
2195.71,995.00
2197.13,974.00
2198.55,1017.00
2199.97,1059.00
2201.39,1038.00
2202.81,974.00
2204.22,1017.00
2205.64,1027.00
2207.05,1059.00
2208.46,1027.00
2209.88,1027.00
2211.29,974.00
2212.70,995.00
2214.11,1016.00
2215.52,996.00
2216.92,985.00
2218.33,974.00
2219.74,1038.00
2221.14,996.00
2222.54,942.00
2223.95,953.00
2225.35,974.00
2226.75,931.00
2228.15,900.00
2229.55,942.00
2230.95,964.00
2232.35,943.00
2233.74,932.00
2235.14,932.00
2236.53,953.00
2237.93,942.00
2239.32,931.00
2240.71,985.00
2242.10,975.00
2243.49,921.00
2244.88,942.00
2246.27,974.00
2247.66,921.00
2249.04,890.00
2250.43,900.00
2251.81,879.00
2253.20,900.00
2254.58,922.00
2255.96,953.00
2257.34,889.00
2258.72,900.00
2260.10,921.00
2261.48,890.00
2262.86,889.00
2264.23,889.00
2265.61,910.00
2266.98,889.00
2268.36,890.00
2269.73,900.00
2271.10,890.00
2272.47,879.00
2273.84,890.00
2275.21,837.00
2276.58,857.00
2277.95,836.00
2279.31,794.00
2280.68,847.00
2282.05,890.00
2283.41,826.00
2284.77,816.00
2286.13,815.00
2287.50,847.00
2288.86,826.00
2290.22,847.00
2291.57,826.00
2292.93,857.00
2294.29,836.00
2295.64,848.00
2297.00,826.00
2298.35,837.00
2299.71,869.00
2301.06,847.00
2302.41,837.00
2303.76,826.00
2305.11,847.00
2306.46,847.00
2307.81,816.00
2309.15,815.00
2310.50,816.00
2311.84,794.00
2313.19,773.00
2314.53,794.00
2315.87,826.00
2317.22,815.00
2318.56,783.00
2319.90,752.00
2321.24,762.00
2322.57,731.00
2323.91,699.00
2325.25,741.00
2326.58,763.00
2327.92,699.00
2329.25,688.00
2330.58,752.00
2331.91,720.00
2333.25,720.00
2334.58,741.00
2335.90,741.00
2337.23,741.00
2338.56,710.00
2339.89,667.00
2341.21,731.00
2342.54,763.00
2343.86,784.00
2345.19,741.00
2346.51,752.00
2347.83,741.00
2349.15,720.00
2350.47,730.00
2351.79,773.00
2353.11,751.00
2354.42,730.00
2355.74,709.00
2357.06,699.00
2358.37,731.00
2359.68,720.00
2361.00,677.00
2362.31,677.00
2363.62,625.00
2364.93,646.00
2366.24,656.00
2367.55,646.00
2368.86,699.00
2370.16,699.00
2371.47,688.00
2372.77,709.00
2374.08,677.00
2375.38,657.00
2376.68,614.00
2377.98,624.00
2379.29,656.00
2380.59,646.00
2381.88,678.00
2383.18,678.00
2384.48,677.00
2385.78,614.00
2387.07,657.00
2388.37,710.00
2389.66,699.00
2390.95,656.00
2392.25,646.00
2393.54,635.00
2394.83,646.00
2396.12,656.00
2397.41,635.00
2398.70,624.00
2399.98,667.00
2401.27,646.00
2402.55,678.00
2403.84,636.00
2405.12,603.00
2406.41,625.00
2407.69,657.00
2408.97,636.00
2410.25,615.00
2411.53,593.00
2412.81,635.00
2414.09,625.00
2415.36,593.00
2416.64,603.00
2417.91,593.00
2419.19,540.00
2420.46,593.00
2421.74,572.00
2423.01,561.00
2424.28,572.00
2425.55,583.00
2426.82,582.00
2428.09,529.00
2429.36,551.00
2430.62,614.00
2431.89,604.00
2433.15,604.00
2434.42,635.00
2435.68,572.00
2436.94,551.00
2438.21,593.00
2439.47,540.00
2440.73,583.00
2441.99,603.00
2443.25,593.00
2444.51,561.00
2445.76,551.00
2447.02,582.00
2448.27,562.00
2449.53,562.00
2450.78,582.00
2452.03,540.00
2453.29,562.00
2454.54,540.00
2455.79,551.00
2457.04,562.00
2458.29,551.00
2459.54,519.00
2460.78,529.00
2462.03,519.00
2463.27,540.00
2464.52,497.00
2465.76,540.00
2467.01,508.00
2468.25,509.00
2469.49,508.00
2470.73,508.00
2471.97,550.00
2473.21,562.00
2474.45,540.00
2475.69,529.00
2476.92,444.00
2478.16,487.00
2479.39,466.00
2480.63,519.00
2481.86,551.00
2483.09,508.00
2484.32,445.00
2485.56,445.00
2486.79,508.00
2488.02,551.00
2489.24,540.00
2490.47,508.00
2491.70,508.00
2492.92,487.00
2494.15,476.00
2495.37,477.00
2496.60,508.00
2497.82,530.00
2499.04,530.00
2500.26,487.00
2501.48,477.00
2502.70,466.00
2503.92,466.00
2505.14,476.00
2506.36,519.00
2507.58,497.00
2508.79,476.00
2510.01,498.00
2511.22,444.00
2512.43,487.00
2513.64,456.00
2514.86,466.00
2516.07,445.00
2517.28,455.00
2518.49,434.00
2519.70,424.00
2520.90,445.00
2522.11,466.00
2523.32,508.00
2524.52,509.00
2525.73,508.00
2526.93,445.00
2528.13,477.00
2529.33,445.00
2530.54,445.00
2531.74,435.00
2532.94,466.00
2534.14,465.00
2535.33,487.00
2536.53,466.00
2537.73,487.00
2538.92,487.00
2540.12,455.00
2541.31,424.00
2542.51,413.00
2543.70,424.00
2544.89,413.00
2546.08,435.00
2547.27,434.00
2548.46,381.00
2549.65,392.00
2550.84,445.00
2552.03,423.00
2553.21,424.00
2554.40,445.00
2555.58,423.00
2556.77,423.00
2557.95,403.00
2559.13,445.00
2560.31,424.00
2561.50,402.00
2562.68,370.00
2563.85,381.00
2565.03,413.00
2566.21,423.00
2567.39,392.00
2568.56,424.00
2569.74,413.00
2570.91,402.00
2572.09,402.00
2573.26,391.00
2574.43,402.00
2575.61,381.00
2576.78,392.00
2577.95,392.00
2579.12,402.00
2580.29,434.00
2581.45,413.00
2582.62,360.00
2583.79,413.00
2584.95,434.00
2586.12,424.00
2587.28,381.00
2588.44,392.00
2589.61,413.00
2590.77,423.00
2591.93,424.00
2593.09,423.00
2594.25,392.00
2595.41,413.00
2596.56,370.00
2597.72,381.00
2598.88,360.00
2600.03,360.00
2601.19,381.00
2602.34,371.00
2603.50,392.00
2604.65,339.00
2605.80,349.00
2606.95,381.00
2608.10,350.00
2609.25,371.00
2610.40,339.00
2611.55,350.00
2612.70,391.00
2613.84,423.00
2614.99,381.00
2616.13,349.00
2617.28,339.00
2618.42,382.00
2619.56,370.00
2620.71,339.00
2621.85,328.00
2622.99,328.00
2624.13,382.00
2625.27,360.00
2626.40,328.00
2627.54,297.00
2628.68,339.00
2629.81,402.00
2630.95,329.00
2632.08,318.00
2633.22,360.00
2634.35,339.00
2635.48,317.00
2636.61,328.00
2637.74,338.00
2638.87,360.00
2640.00,381.00
2641.13,339.00
2642.26,297.00
2643.39,307.00
2644.51,382.00
2645.64,381.00
2646.76,339.00
2647.89,296.00
2649.01,318.00
2650.13,329.00
2651.25,307.00
2652.38,318.00
2653.50,360.00
2654.62,339.00
2655.73,339.00
2656.85,339.00
2657.97,339.00
2659.09,349.00
2660.20,339.00
2661.32,350.00
2662.43,360.00
2663.55,286.00
2664.66,329.00
2665.77,297.00
2666.88,318.00
2667.99,392.00
2669.10,307.00
2670.21,296.00
2671.32,328.00
2672.43,328.00
2673.54,339.00
2674.64,329.00
2675.75,275.00
2676.85,276.00
2677.96,297.00
2679.06,297.00
2680.16,318.00
2681.26,381.00
2682.37,371.00
2683.47,317.00
2684.57,317.00
2685.66,276.00
2686.76,275.00
2687.86,297.00
2688.96,286.00
2690.05,297.00
2691.15,296.00
2692.24,328.00
2693.34,339.00
2694.43,297.00
2695.52,244.00
2696.62,222.00
2697.71,275.00
2698.80,222.00
2699.89,233.00
2700.98,275.00
2702.06,286.00
2703.15,254.00
2704.24,233.00
2705.32,254.00
2706.41,243.00
2707.49,255.00
2708.58,264.00
2709.66,296.00
2710.74,339.00
2711.83,275.00
2712.91,276.00
2713.99,286.00
2715.07,254.00
2716.15,254.00
2717.22,254.00
2718.30,233.00
2719.38,244.00
2720.45,244.00
2721.53,255.00
2722.60,285.00
2723.68,254.00
2724.75,233.00
2725.82,264.00
2726.89,286.00
2727.97,276.00
2729.04,233.00
2730.11,222.00
2731.17,233.00
2732.24,264.00
2733.31,254.00
2734.38,244.00
2735.44,212.00
2736.51,243.00
2737.57,254.00
2738.64,255.00
2739.70,233.00
2740.76,233.00
2741.82,265.00
2742.89,275.00
2743.95,233.00
2745.01,211.00
2746.07,201.00
2747.12,243.00
2748.18,233.00
2749.24,222.00
2750.29,212.00
2751.35,212.00
2752.40,254.00
2753.46,296.00
2754.51,244.00
2755.57,222.00
2756.62,190.00
2757.67,212.00
2758.72,201.00
2759.77,212.00
2760.82,244.00
2761.87,190.00
2762.91,201.00
2763.96,254.00
2765.01,265.00
2766.05,297.00
2767.10,233.00
2768.14,212.00
2769.19,222.00
2770.23,222.00
2771.27,254.00
2772.31,223.00
2773.35,211.00
2774.40,223.00
2775.43,212.00
2776.47,254.00
2777.51,233.00
2778.55,254.00
2779.59,254.00
2780.62,212.00
2781.66,169.00
2782.69,190.00
2783.73,201.00
2784.76,233.00
2785.79,232.00
2786.82,211.00
2787.85,169.00
2788.89,191.00
2789.92,212.00
2790.94,222.00
2791.97,191.00
2793.00,223.00
2794.03,180.00
2795.05,201.00
2796.08,180.00
2797.11,212.00
2798.13,190.00
2799.15,212.00
2800.18,255.00
2801.20,233.00
2802.22,222.00
2803.24,201.00
2804.26,190.00
2805.28,180.00
2806.30,233.00
2807.32,275.00
2808.34,191.00
2809.35,180.00
2810.37,149.00
2811.39,137.00
2812.40,191.00
2813.41,223.00
2814.43,190.00
2815.44,180.00
2816.45,191.00
2817.46,212.00
2818.48,191.00
2819.49,191.00
2820.49,201.00
2821.50,170.00
2822.51,190.00
2823.52,191.00
2824.53,212.00
2825.53,169.00
2826.54,170.00
2827.54,191.00
2828.55,191.00
2829.55,201.00
2830.55,243.00
2831.55,243.00
2832.56,244.00
2833.56,191.00
2834.56,180.00
2835.56,191.00
2836.56,191.00
2837.55,191.00
2838.55,211.00
2839.55,169.00
2840.54,159.00
2841.54,191.00
2842.53,180.00
2843.53,148.00
2844.52,170.00
2845.51,159.00
2846.51,149.00
2847.50,148.00
2848.49,170.00
2849.48,233.00
2850.47,212.00
2851.46,169.00
2852.45,158.00
2853.43,170.00
2854.42,201.00
2855.41,222.00
2856.39,233.00
2857.38,212.00
2858.36,212.00
2859.34,190.00
2860.33,233.00
2861.31,191.00
2862.29,128.00
2863.27,127.00
2864.25,84.00
2865.23,127.00
2866.21,190.00
2867.19,158.00
2868.17,148.00
2869.14,170.00
2870.12,170.00
2871.09,127.00
2872.07,105.00
2873.04,127.00
2874.02,148.00
2874.99,159.00
2875.96,190.00
2876.93,243.00
2877.91,201.00
2878.88,180.00
2879.85,212.00
2880.82,191.00
2881.78,201.00
2882.75,127.00
2883.72,127.00
2884.69,138.00
2885.65,159.00
2886.62,148.00
2887.58,127.00
2888.55,180.00
2889.51,190.00
2890.47,149.00
2891.43,127.00
2892.39,148.00
2893.36,137.00
2894.31,137.00
2895.27,106.00
2896.23,137.00
2897.19,137.00
2898.15,148.00
2899.11,190.00
2900.06,169.00
2901.02,137.00
2901.97,116.00
2902.93,127.00
2903.88,127.00
2904.83,137.00
2905.79,148.00
2906.74,190.00
2907.69,148.00
2908.64,159.00
2909.59,169.00
2910.54,190.00
2911.49,149.00
2912.43,137.00
2913.38,180.00
2914.33,191.00
2915.27,127.00
2916.22,137.00
2917.16,138.00
2918.11,106.00
2919.05,127.00
2919.99,148.00
2920.94,138.00
2921.88,127.00
2922.82,148.00
2923.76,169.00
2924.70,191.00
2925.64,170.00
2926.58,148.00
2927.51,158.00
2928.45,106.00
2929.39,127.00
2930.32,159.00
2931.26,149.00
2932.19,128.00
2933.13,137.00
2934.06,127.00
2934.99,127.00
2935.92,117.00
2936.86,148.00
2937.79,190.00
2938.72,148.00
2939.65,138.00
2940.57,74.00
2941.50,106.00
2942.43,191.00
2943.36,170.00
2944.28,148.00
2945.21,127.00
2946.13,127.00
2947.06,169.00
2947.98,138.00
2948.91,116.00
2949.83,148.00
2950.75,85.00
2951.67,148.00
2952.59,116.00
2953.51,106.00
2954.43,127.00
2955.35,95.00
2956.27,96.00
2957.19,127.00
2958.10,138.00
2959.02,106.00
2959.94,64.00
2960.85,127.00
2961.77,148.00
2962.68,159.00
2963.59,127.00
2964.51,127.00
2965.42,106.00
2966.33,127.00
2967.24,63.00
2968.15,95.00
2969.06,106.00
2969.97,85.00
2970.88,169.00
2971.78,127.00
2972.69,85.00
2973.60,117.00
2974.50,84.00
2975.41,95.00
2976.31,96.00
2977.22,138.00
2978.12,106.00
2979.02,106.00
2979.93,117.00
2980.83,106.00
2981.73,158.00
2982.63,116.00
2983.53,74.00
2984.43,95.00
2985.33,85.00
2986.22,85.00
2987.12,95.00
2988.02,138.00
2988.91,106.00
2989.81,127.00
2990.70,148.00
2991.60,148.00
2992.49,63.00
2993.38,95.00
2994.28,116.00
2995.17,106.00
2996.06,84.00
2996.95,106.00
2997.84,138.00
2998.73,117.00
2999.62,138.00
3000.51,84.00
3001.40,63.00
3002.28,85.00
3003.17,42.00
3004.05,85.00
3004.94,127.00
3005.82,116.00
3006.71,137.00
3007.59,106.00
3008.47,116.00
3009.36,95.00
3010.24,85.00
3011.12,127.00
3012.00,127.00
3012.88,127.00
3013.76,96.00
3014.64,95.00
3015.51,127.00
3016.39,105.00
3017.27,95.00
3018.14,149.00
3019.02,116.00
3019.89,85.00
3020.77,127.00
3021.64,74.00
3022.52,74.00
3023.39,85.00
3024.26,106.00
3025.13,106.00
3026.00,85.00
3026.87,85.00
3027.74,95.00
3028.61,95.00
3029.48,0.00
3030.35,21.00
3031.21,85.00
3032.08,32.00
3032.95,52.00
3033.81,63.00
3034.68,85.00
3035.54,85.00
3036.40,85.00
3037.27,85.00
3038.13,74.00
3038.99,84.00
3039.85,127.00
3040.71,117.00
3041.57,21.00
3042.43,96.00
3043.29,116.00
3044.15,74.00
3045.01,43.00
3045.86,95.00
3046.72,74.00
3047.58,85.00
3048.43,64.00
3049.29,52.00
3050.14,32.00
3050.99,21.00
3051.85,43.00
3052.70,85.00
3053.55,64.00
3054.40,42.00
3055.25,84.00
3056.10,53.00
3056.95,21.00
3057.80,53.00
3058.65,85.00
3059.50,127.00
3060.34,85.00
3061.19,53.00
3062.04,95.00
3062.88,74.00
3063.73,63.00
3064.57,43.00
3065.42,106.00
3066.26,85.00
3067.10,63.00
3067.94,63.00
3068.78,85.00
3069.63,42.00
3070.47,105.00
3071.31,84.00
3072.14,74.00
3072.98,85.00
3073.82,42.00
3074.66,43.00
3075.49,31.00
3076.33,42.00
3077.17,43.00
3078.00,43.00
3078.83,74.00
3079.67,117.00
3080.50,85.00
3081.33,42.00
3082.17,43.00
3083.00,63.00
3083.83,42.00
3084.66,74.00
3085.49,53.00
3086.32,63.00
3087.15,75.00
3087.97,84.00
3088.80,43.00
3089.63,63.00
3090.46,74.00
3091.28,85.00
3092.11,84.00
3092.93,22.00
3093.75,43.00
3094.58,63.00
3095.40,74.00
3096.22,105.00
3097.05,105.00
3097.87,74.00
3098.69,22.00
3099.51,10.00
3100.33,43.00
3101.15,85.00
3101.96,74.00
3102.78,84.00
3103.60,75.00
3104.42,74.00
3105.23,0.00
3106.05,-32.00
3106.86,21.00
3107.68,32.00
3108.49,106.00
3109.30,64.00
3110.12,31.00
3110.93,53.00
3111.74,42.00
3112.55,74.00
3113.36,53.00
3114.17,53.00
3114.98,31.00
3115.79,0.00
3116.60,64.00
3117.40,95.00
3118.21,84.00
3119.02,22.00
3119.82,32.00
3120.63,22.00
3121.43,95.00
3122.24,117.00
3123.04,106.00
3123.84,96.00
3124.65,96.00
3125.45,42.00
3126.25,53.00
3127.05,42.00
3127.85,105.00
3128.65,84.00
3129.45,42.00
3130.25,85.00
3131.05,64.00
3131.84,53.00
3132.64,53.00
3133.44,11.00
3134.23,42.00
3135.03,11.00
3135.82,22.00
3136.62,21.00
3137.41,0.00
3138.20,84.00
3139.00,106.00
3139.79,32.00
3140.58,31.00
3141.37,53.00
3142.16,42.00
3142.95,74.00
3143.74,64.00
3144.53,64.00
3145.32,85.00
3146.10,52.00
3146.89,10.00
3147.68,64.00
3148.46,64.00
3149.25,32.00
3150.03,42.00
3150.82,85.00
3151.60,74.00
3152.38,53.00
3153.17,64.00
3153.95,43.00
3154.73,64.00
3155.51,117.00
3156.29,64.00
3157.07,43.00
3157.85,74.00
3158.63,42.00
3159.41,42.00
3160.18,84.00
3160.96,21.00
3161.74,21.00
3162.51,42.00
3163.29,42.00
3164.06,-21.00
3164.84,0.00
3165.61,22.00
3166.38,21.00
3167.16,11.00
3167.93,53.00
3168.70,42.00
3169.47,32.00
3170.24,-11.00
3171.01,32.00
3171.78,21.00
3172.55,11.00
3173.32,53.00
3174.09,32.00
3174.85,0.00
3175.62,21.00
3176.39,53.00
3177.15,63.00
3177.92,85.00
3178.68,42.00
3179.45,0.00
3180.21,53.00
3180.97,63.00
3181.73,32.00
3182.50,11.00
3183.26,21.00
3184.02,10.00
3184.78,-32.00
3185.54,10.00
3186.30,-21.00
3187.05,10.00
3187.81,11.00
3188.57,32.00
3189.33,32.00
3190.08,85.00
3190.84,106.00
3191.59,106.00
3192.35,127.00
3193.10,116.00
3193.86,96.00
3194.61,75.00
3195.36,32.00
3196.12,32.00
3196.87,31.00
3197.62,42.00
3198.37,-11.00
3199.12,0.00
3199.87,63.00
3200.62,21.00
3201.36,0.00
3202.11,43.00
3202.86,85.00
3203.61,85.00
3204.35,21.00
3205.10,42.00
3205.84,63.00
3206.59,64.00
3207.33,64.00
3208.08,0.00
3208.82,11.00
3209.56,0.00
3210.30,85.00
3211.05,43.00
3211.79,0.00
3212.53,42.00
3213.27,63.00
3214.01,63.00
3214.75,42.00
3215.48,0.00
3216.22,0.00
3216.96,53.00
3217.69,63.00
3218.43,32.00
3219.17,21.00
3219.90,95.00
3220.64,74.00
3221.37,64.00
3222.10,95.00
3222.84,64.00
3223.57,10.00
3224.30,42.00
3225.03,63.00
3225.76,11.00
3226.49,64.00
3227.22,32.00
3227.95,21.00
3228.68,32.00
3229.41,22.00
3230.14,63.00
3230.87,74.00
3231.59,74.00
3232.32,21.00
3233.04,10.00
3233.77,63.00
3234.49,64.00
3235.22,21.00
3235.94,0.00
3236.66,11.00
3237.39,0.00
3238.11,21.00
3238.83,11.00
3239.55,21.00
3240.27,64.00
3240.99,10.00
3241.71,21.00
3242.43,22.00
3243.15,53.00
3243.87,0.00
3244.58,-10.00
3245.30,10.00
3246.02,64.00
3246.73,21.00
3247.45,53.00
3248.16,32.00
3248.88,10.00
3249.59,43.00
3250.30,85.00
3251.01,117.00
3251.73,64.00
3252.44,22.00
3253.15,53.00
3253.86,0.00
3254.57,-42.00
3255.28,21.00
3255.99,42.00
3256.70,10.00
3257.41,32.00
3258.11,42.00
3258.82,84.00
3259.53,21.00
3260.23,21.00
3260.94,74.00
3261.64,32.00
3262.35,0.00
3263.05,0.00
3263.76,53.00
3264.46,63.00
3265.16,22.00
3265.86,31.00
3266.56,21.00
3267.26,32.00
3267.97,32.00
3268.67,74.00
3269.36,74.00
3270.06,74.00
3270.76,42.00
3271.46,21.00
3272.16,43.00
3272.85,0.00
