RamanShift,Intensity
180.91,429.00
183.74,487.00
186.56,624.00
189.39,910.00
192.21,1270.00
195.03,1853.00
197.84,2785.00
200.66,3907.00
203.47,5252.00
206.28,6661.00
209.09,7911.00
211.89,9192.00
214.70,10282.00
217.50,11087.00
220.30,11659.00
223.10,12114.00
225.89,12411.00
228.69,12538.00
231.48,12834.00
234.27,13152.00
237.05,13183.00
239.84,13131.00
242.62,12961.00
245.40,12940.00
248.18,12866.00
250.96,12749.00
253.73,12580.00
256.51,12390.00
259.28,12378.00
262.05,12262.00
264.81,12040.00
267.58,11913.00
270.34,11838.00
273.10,11743.00
275.86,11733.00
278.61,11690.00
281.37,11627.00
284.12,11574.00
286.87,11638.00
289.62,11723.00
292.36,11638.00
295.11,11648.00
297.85,11616.00
300.59,11626.00
303.33,11648.00
306.06,11489.00
308.80,11606.00
311.53,11679.00
314.26,11574.00
316.99,11690.00
319.71,11680.00
322.44,11521.00
325.16,11404.00
327.88,11426.00
330.59,11489.00
333.31,11584.00
336.02,11489.00
338.73,11522.00
341.44,11553.00
344.15,11457.00
346.86,11384.00
349.56,11394.00
352.26,11490.00
354.96,11489.00
357.66,11510.00
360.35,11447.00
363.05,11415.00
365.74,11490.00
368.43,11616.00
371.12,11807.00
373.80,11796.00
376.48,11764.00
379.17,11786.00
381.85,11860.00
384.52,11965.00
387.20,11860.00
389.87,11807.00
392.54,12040.00
395.21,11976.00
397.88,11923.00
400.55,11902.00
403.21,11976.00
405.87,11945.00
408.53,11902.00
411.19,11838.00
413.84,11912.00
416.50,12008.00
419.15,11839.00
421.80,11828.00
424.45,11733.00
427.10,11648.00
429.74,11680.00
432.38,11712.00
435.02,11680.00
437.66,11733.00
440.30,11744.00
442.93,11680.00
445.56,11637.00
448.19,11690.00
450.82,11658.00
453.45,11659.00
456.07,11595.00
458.70,11606.00
461.32,11881.00
463.94,11849.00
466.55,11849.00
469.17,11860.00
471.78,11818.00
474.39,11871.00
477.00,11786.00
479.61,11669.00
482.22,11616.00
484.82,11659.00
487.42,11658.00
490.02,11616.00
492.62,11606.00
495.21,11553.00
497.81,11499.00
500.40,11479.00
502.99,11468.00
505.58,11479.00
508.17,11405.00
510.75,11373.00
513.33,11447.00
515.91,11458.00
518.49,11373.00
521.07,11384.00
523.65,11542.00
526.22,11564.00
528.79,11256.00
531.36,11278.00
533.93,11404.00
536.49,11278.00
539.06,11235.00
541.62,11214.00
544.18,11267.00
546.74,11351.00
549.30,11425.00
551.85,11415.00
554.40,11319.00
556.95,11320.00
559.50,11330.00
562.05,11351.00
564.59,11214.00
567.14,11139.00
569.68,11203.00
572.22,11214.00
574.76,11140.00
577.29,11055.00
579.83,11192.00
582.36,11150.00
584.89,10928.00
587.42,10917.00
589.95,10876.00
592.47,10780.00
594.99,10843.00
597.52,10812.00
600.04,10716.00
602.55,10695.00
605.07,10621.00
607.58,10505.00
610.09,10483.00
612.60,10536.00
615.11,10558.00
617.62,10579.00
620.12,10600.00
622.63,10515.00
625.13,10558.00
627.63,10494.00
630.13,10366.00
632.62,10462.00
635.12,10440.00
637.61,10251.00
640.10,10187.00
642.59,10314.00
645.07,10260.00
647.56,10187.00
650.04,10260.00
652.52,10165.00
655.00,10145.00
657.48,10092.00
659.96,10165.00
662.43,10155.00
664.90,10155.00
667.37,10218.00
669.84,10091.00
672.31,10092.00
674.78,10070.00
677.24,10070.00
679.70,10070.00
682.16,10102.00
684.62,10165.00
687.08,10017.00
689.53,9986.00
691.98,9795.00
694.43,9933.00
696.88,9997.00
699.33,9795.00
701.78,9732.00
704.22,9753.00
706.66,9604.00
709.10,9753.00
711.54,9721.00
713.98,9572.00
716.42,9626.00
718.85,9689.00
721.28,9721.00
723.71,9785.00
726.14,9773.00
728.57,9900.00
730.99,9975.00
733.41,10102.00
735.83,10113.00
738.25,9996.00
740.67,9742.00
743.09,9573.00
745.50,9371.00
747.91,9276.00
750.33,9202.00
752.73,9127.00
755.14,9192.00
757.55,9244.00
759.95,9202.00
762.35,9181.00
764.75,9159.00
767.15,9202.00
769.55,9107.00
771.95,8895.00
774.34,8842.00
776.73,9011.00
779.12,9075.00
781.51,9032.00
783.90,8969.00
786.28,8873.00
788.67,8884.00
791.05,8927.00
793.43,8821.00
795.80,8874.00
798.18,8906.00
800.56,8821.00
802.93,8820.00
805.30,8800.00
807.67,8736.00
810.04,8715.00
812.40,8757.00
814.77,8683.00
817.13,8587.00
819.49,8609.00
821.85,8567.00
824.21,8556.00
826.57,8503.00
828.92,8460.00
831.27,8525.00
833.63,8577.00
835.98,8535.00
838.32,8376.00
840.67,8228.00
843.01,8164.00
845.36,8228.00
847.70,8238.00
850.04,8186.00
852.37,8217.00
854.71,8154.00
857.05,8154.00
859.38,8111.00
861.71,8069.00
864.04,8100.00
866.37,8100.00
868.69,8016.00
871.02,8048.00
873.34,8048.00
875.66,7942.00
877.98,7931.00
880.30,7868.00
882.62,7889.00
884.93,7921.00
887.24,7942.00
889.55,7942.00
891.86,7879.00
894.17,7836.00
896.48,7878.00
898.78,7857.00
901.09,7761.00
903.39,7825.00
905.69,7857.00
907.99,7751.00
910.28,7741.00
912.58,7762.00
914.87,7751.00
917.16,7783.00
919.45,7678.00
921.74,7666.00
924.03,7773.00
926.31,7698.00
928.60,7560.00
930.88,7592.00
933.16,7539.00
935.44,7508.00
937.72,7572.00
939.99,7529.00
942.26,7455.00
944.54,7476.00
946.81,7529.00
949.08,7540.00
951.34,7423.00
953.61,7486.00
955.87,7486.00
958.14,7317.00
960.40,7307.00
962.66,7339.00
964.92,7349.00
967.17,7232.00
969.43,7211.00
971.68,7201.00
973.93,7147.00
976.18,7063.00
978.43,7032.00
980.68,7116.00
982.92,7084.00
985.17,6968.00
987.41,7020.00
989.65,6967.00
991.89,6830.00
994.12,6904.00
996.36,6905.00
998.59,6862.00
1000.83,6862.00
1003.06,6830.00
1005.29,6872.00
1007.51,6905.00
1009.74,6883.00
1011.97,6808.00
1014.19,6756.00
1016.41,6766.00
1018.63,6756.00
1020.85,6809.00
1023.07,6852.00
1025.28,6724.00
1027.49,6660.00
1029.71,6703.00
1031.92,6693.00
1034.13,6639.00
1036.33,6650.00
1038.54,6597.00
1040.74,6576.00
1042.95,6534.00
1045.15,6523.00
1047.35,6607.00
1049.55,6597.00
1051.74,6513.00
1053.94,6385.00
1056.13,6491.00
1058.32,6534.00
1060.51,6544.00
1062.70,6523.00
1064.89,6576.00
1067.08,6502.00
1069.26,6470.00
1071.44,6470.00
1073.63,6427.00
1075.81,6364.00
1077.98,6406.00
1080.16,6449.00
1082.34,6459.00
1084.51,6332.00
1086.68,6311.00
1088.85,6342.00
1091.02,6332.00
1093.19,6259.00
1095.35,6195.00
1097.52,6237.00
1099.68,6364.00
1101.84,6301.00
1104.00,6121.00
1106.16,6110.00
1108.32,6121.00
1110.48,6131.00
1112.63,6163.00
1114.78,6047.00
1116.93,6004.00
1119.08,6015.00
1121.23,6046.00
1123.38,6078.00
1125.52,5983.00
1127.67,6014.00
1129.81,6089.00
1131.95,6004.00
1134.09,6004.00
1136.22,5962.00
1138.36,5898.00
1140.50,5877.00
1142.63,5919.00
1144.76,5962.00
1146.89,5961.00
1149.02,5877.00
1151.15,5813.00
1153.27,5824.00
1155.40,5845.00
1157.52,5824.00
1159.64,5824.00
1161.76,5772.00
1163.88,5729.00
1165.99,5792.00
1168.11,5740.00
1170.22,5666.00
1172.34,5676.00
1174.45,5687.00
1176.56,5718.00
1178.66,5665.00
1180.77,5623.00
1182.88,5623.00
1184.98,5591.00
1187.08,5570.00
1189.18,5570.00
1191.28,5601.00
1193.38,5622.00
1195.47,5623.00
1197.57,5622.00
1199.66,5528.00
1201.75,5570.00
1203.85,5623.00
1205.93,5623.00
1208.02,5506.00
1210.11,5433.00
1212.19,5432.00
1214.28,5517.00
1216.36,5612.00
1218.44,5581.00
1220.52,5443.00
1222.59,5432.00
1224.67,5475.00
1226.74,5506.00
1228.82,5411.00
1230.89,5475.00
1232.96,5454.00
1235.03,5412.00
1237.10,5369.00
1239.16,5369.00
1241.23,5432.00
1243.29,5390.00
1245.35,5348.00
1247.41,5369.00
1249.47,5454.00
1251.53,5273.00
1253.58,5220.00
1255.64,5358.00
1257.69,5411.00
1259.74,5316.00
1261.79,5241.00
1263.84,5210.00
1265.89,5231.00
1267.93,5200.00
1269.98,5136.00
1272.02,5115.00
1274.06,5093.00
1276.10,5136.00
1278.14,5220.00
1280.18,5136.00
1282.22,5136.00
1284.25,5136.00
1286.28,5083.00
1288.32,5083.00
1290.35,5072.00
1292.38,5030.00
1294.40,4977.00
1296.43,4987.00
1298.46,4966.00
1300.48,4998.00
1302.50,5030.00
1304.52,5062.00
1306.54,5094.00
1308.56,5009.00
1310.58,4935.00
1312.59,4850.00
1314.60,4903.00
1316.62,4945.00
1318.63,4966.00
1320.64,5008.00
1322.65,4955.00
1324.65,4998.00
1326.66,5083.00
1328.66,5114.00
1330.66,5083.00
1332.67,5104.00
1334.67,5114.00
1336.66,5093.00
1338.66,5062.00
1340.66,4955.00
1342.65,4882.00
1344.65,4829.00
1346.64,4733.00
1348.63,4734.00
1350.62,4829.00
1352.60,4808.00
1354.59,4786.00
1356.57,4733.00
1358.56,4702.00
1360.54,4670.00
1362.52,4712.00
1364.50,4733.00
1366.48,4744.00
1368.46,4670.00
1370.43,4596.00
1372.41,4691.00
1374.38,4755.00
1376.35,4712.00
1378.32,4649.00
1380.29,4670.00
1382.25,4660.00
1384.22,4532.00
1386.18,4500.00
1388.15,4490.00
1390.11,4522.00
1392.07,4543.00
1394.03,4490.00
1395.99,4627.00
1397.94,4617.00
1399.90,4575.00
1401.85,4627.00
1403.80,4564.00
1405.76,4532.00
1407.71,4490.00
1409.65,4564.00
1411.60,4606.00
1413.55,4469.00
1415.49,4394.00
1417.44,4342.00
1419.38,4352.00
1421.32,4310.00
1423.26,4310.00
1425.19,4288.00
1427.13,4353.00
1429.07,4363.00
1431.00,4257.00
1432.93,4225.00
1434.86,4236.00
1436.79,4225.00
1438.72,4214.00
1440.65,4299.00
1442.57,4310.00
1444.50,4204.00
1446.42,4151.00
1448.34,4247.00
1450.26,4278.00
1452.18,4288.00
1454.10,4310.00
1456.02,4193.00
1457.93,4204.00
1459.85,4225.00
1461.76,4215.00
1463.67,4141.00
1465.58,4066.00
1467.49,4035.00
1469.40,4056.00
1471.31,4024.00
1473.21,4056.00
1475.11,4119.00
1477.02,4108.00
1478.92,4098.00
1480.82,4119.00
1482.72,3971.00
1484.61,3928.00
1486.51,3928.00
1488.40,3971.00
1490.30,3971.00
1492.19,3939.00
1494.08,3971.00
1495.97,4013.00
1497.86,3971.00
1499.74,3982.00
1501.63,3865.00
1503.51,3833.00
1505.40,3886.00
1507.28,3844.00
1509.16,3854.00
1511.04,3812.00
1512.92,3855.00
1514.79,3908.00
1516.67,3876.00
1518.54,3876.00
1520.42,3886.00
1522.29,3886.00
1524.16,3876.00
1526.03,3950.00
1527.89,3908.00
1529.76,3781.00
1531.63,3802.00
1533.49,3802.00
1535.35,3759.00
1537.21,3717.00
1539.07,3717.00
1540.93,3780.00
1542.79,3759.00
1544.65,3770.00
1546.50,3696.00
1548.36,3675.00
1550.21,3633.00
1552.06,3643.00
1553.91,3695.00
1555.76,3632.00
1557.61,3664.00
1559.45,3611.00
1561.30,3526.00
1563.14,3569.00
1564.98,3547.00
1566.82,3526.00
1568.67,3547.00
1570.50,3558.00
1572.34,3568.00
1574.18,3632.00
1576.01,3675.00
1577.85,3632.00
1579.68,3516.00
1581.51,3526.00
1583.34,3569.00
1585.17,3483.00
1587.00,3526.00
1588.82,3516.00
1590.65,3420.00
1592.47,3442.00
1594.30,3452.00
1596.12,3421.00
1597.94,3388.00
1599.76,3346.00
1601.57,3399.00
1603.39,3389.00
1605.21,3367.00
1607.02,3410.00
1608.83,3389.00
1610.64,3368.00
1612.45,3325.00
1614.26,3272.00
1616.07,3293.00
1617.88,3293.00
1619.68,3293.00
1621.49,3251.00
1623.29,3251.00
1625.09,3229.00
1626.89,3272.00
1628.69,3272.00
1630.49,3230.00
1632.29,3219.00
1634.08,3219.00
1635.88,3166.00
1637.67,3177.00
1639.46,3177.00
1641.25,3135.00
1643.04,3135.00
1644.83,3113.00
1646.62,3187.00
1648.41,3155.00
1650.19,3124.00
1651.97,3134.00
1653.76,3039.00
1655.54,2997.00
1657.32,3050.00
1659.10,3102.00
1660.88,3167.00
1662.65,3071.00
1664.43,3103.00
1666.20,3039.00
1667.97,2986.00
1669.75,2986.00
1671.52,3029.00
1673.29,3007.00
1675.05,3007.00
1676.82,2955.00
1678.59,2944.00
1680.35,2881.00
1682.11,2933.00
1683.88,2912.00
1685.64,2816.00
1687.40,2849.00
1689.16,2806.00
1690.91,2796.00
1692.67,2838.00
1694.42,2870.00
1696.18,2880.00
1697.93,2859.00
1699.68,2848.00
1701.43,2817.00
1703.18,2817.00
1704.93,2796.00
1706.68,2721.00
1708.42,2711.00
1710.17,2763.00
1711.91,2806.00
1713.65,2775.00
1715.39,2764.00
1717.13,2785.00
1718.87,2742.00
1720.61,2753.00
1722.35,2785.00
1724.08,2764.00
1725.81,2711.00
1727.55,2722.00
1729.28,2690.00
1731.01,2658.00
1732.74,2679.00
1734.47,2679.00
1736.19,2647.00
1737.92,2679.00
1739.64,2616.00
1741.37,2615.00
1743.09,2563.00
1744.81,2520.00
1746.53,2584.00
1748.25,2658.00
1749.97,2605.00
1751.68,2637.00
1753.40,2605.00
1755.11,2626.00
1756.83,2573.00
1758.54,2542.00
1760.25,2584.00
1761.96,2584.00
1763.67,2542.00
1765.38,2531.00
1767.08,2520.00
1768.79,2520.00
1770.49,2562.00
1772.19,2573.00
1773.90,2488.00
1775.60,2446.00
1777.30,2467.00
1778.99,2478.00
1780.69,2542.00
1782.39,2477.00
1784.08,2446.00
1785.78,2467.00
1787.47,2456.00
1789.16,2499.00
1790.85,2456.00
1792.54,2415.00
1794.23,2435.00
1795.91,2415.00
1797.60,2404.00
1799.28,2457.00
1800.97,2499.00
1802.65,2478.00
1804.33,2447.00
1806.01,2478.00
1807.69,2488.00
1809.37,2446.00
1811.05,2436.00
1812.72,2361.00
1814.40,2351.00
1816.07,2351.00
1817.74,2329.00
1819.41,2330.00
1821.08,2351.00
1822.75,2351.00
1824.42,2340.00
1826.09,2330.00
1827.75,2202.00
1829.42,2171.00
1831.08,2203.00
1832.74,2181.00
1834.40,2224.00
1836.06,2266.00
1837.72,2298.00
1839.38,2330.00
1841.04,2308.00
1842.69,2234.00
1844.35,2298.00
1846.00,2308.00
1847.65,2287.00
1849.30,2297.00
1850.95,2245.00
1852.60,2213.00
1854.25,2150.00
1855.90,2139.00
1857.54,2245.00
1859.19,2224.00
1860.83,2139.00
1862.47,2182.00
1864.12,2202.00
1865.76,2149.00
1867.40,2118.00
1869.03,2139.00
1870.67,2160.00
1872.31,2097.00
1873.94,2128.00
1875.57,2086.00
1877.21,2139.00
1878.84,2160.00
1880.47,2033.00
1882.10,2075.00
1883.73,2075.00
1885.35,2065.00
1886.98,2096.00
1888.61,2118.00
1890.23,2012.00
1891.85,2033.00
1893.47,2076.00
1895.09,2054.00
1896.71,2064.00
1898.33,2012.00
1899.95,2054.00
1901.57,2055.00
1903.18,1991.00
1904.80,1981.00
1906.41,2001.00
1908.02,2002.00
1909.63,1981.00
1911.24,1949.00
1912.85,1949.00
1914.46,1980.00
1916.07,1990.00
1917.67,2001.00
1919.28,2001.00
1920.88,1906.00
1922.48,1875.00
1924.08,1938.00
1925.68,1927.00
1927.28,1863.00
1928.88,1821.00
1930.48,1874.00
1932.07,1885.00
1933.67,1906.00
1935.26,1927.00
1936.86,1906.00
1938.45,1885.00
1940.04,1906.00
1941.63,1927.00
1943.22,1927.00
1944.80,1885.00
1946.39,1875.00
1947.98,1864.00
1949.56,1790.00
1951.14,1821.00
1952.73,1906.00
1954.31,1843.00
1955.89,1779.00
1957.47,1769.00
1959.05,1832.00
1960.62,1843.00
1962.20,1864.00
1963.77,1832.00
1965.35,1853.00
1966.92,1832.00
1968.49,1768.00
1970.06,1811.00
1971.63,1779.00
1973.20,1768.00
1974.77,1769.00
1976.34,1779.00
1977.90,1821.00
1979.47,1884.00
1981.03,1832.00
1982.59,1757.00
1984.15,1737.00
1985.71,1694.00
1987.27,1652.00
1988.83,1620.00
1990.39,1695.00
1991.94,1694.00
1993.50,1758.00
1995.05,1758.00
1996.61,1694.00
1998.16,1683.00
1999.71,1694.00
2001.26,1726.00
2002.81,1716.00
2004.36,1715.00
2005.91,1663.00
2007.45,1673.00
2009.00,1631.00
2010.54,1620.00
2012.08,1684.00
2013.62,1694.00
2015.17,1631.00
2016.71,1620.00
2018.24,1631.00
2019.78,1652.00
2021.32,1673.00
2022.85,1652.00
2024.39,1641.00
2025.92,1631.00
2027.46,1641.00
2028.99,1609.00
2030.52,1610.00
2032.05,1641.00
2033.58,1631.00
2035.10,1588.00
2036.63,1568.00
2038.16,1525.00
2039.68,1557.00
2041.21,1567.00
2042.73,1557.00
2044.25,1609.00
2045.77,1609.00
2047.29,1588.00
2048.81,1546.00
2050.33,1556.00
2051.84,1577.00
2053.36,1525.00
2054.87,1525.00
2056.39,1535.00
2057.90,1482.00
2059.41,1525.00
2060.92,1567.00
2062.43,1535.00
2063.94,1440.00
2065.45,1462.00
2066.95,1514.00
2068.46,1514.00
2069.96,1451.00
2071.47,1461.00
2072.97,1514.00
2074.47,1525.00
2075.97,1567.00
2077.47,1556.00
2078.97,1483.00
2080.47,1430.00
2081.96,1451.00
2083.46,1472.00
2084.95,1440.00
2086.45,1313.00
2087.94,1313.00
2089.43,1419.00
2090.92,1440.00
2092.41,1398.00
2093.90,1377.00
2095.39,1387.00
2096.88,1355.00
2098.36,1398.00
2099.85,1377.00
2101.33,1387.00
2102.81,1313.00
2104.30,1324.00
2105.78,1345.00
2107.26,1334.00
2108.74,1302.00
2110.21,1271.00
2111.69,1324.00
2113.17,1345.00
2114.64,1366.00
2116.12,1388.00
2117.59,1387.00
2119.06,1334.00
2120.53,1334.00
2122.00,1313.00
2123.47,1313.00
2124.94,1323.00
2126.41,1281.00
2127.87,1260.00
2129.34,1292.00
2130.80,1281.00
2132.27,1270.00
2133.73,1249.00
2135.19,1228.00
2136.65,1260.00
2138.11,1207.00
2139.57,1154.00
2141.03,1260.00
2142.48,1270.00
2143.94,1249.00
2145.39,1270.00
2146.85,1165.00
2148.30,1155.00
2149.75,1239.00
2151.20,1281.00
2152.65,1260.00
2154.10,1196.00
2155.55,1165.00
2157.00,1154.00
2158.44,1270.00
2159.89,1302.00
2161.33,1207.00
2162.78,1186.00
2164.22,1144.00
2165.66,1228.00
2167.10,1207.00
2168.54,1207.00
2169.98,1186.00
2171.42,1144.00
2172.85,1164.00
2174.29,1165.00
2175.72,1186.00
2177.16,1228.00
2178.59,1165.00
2180.02,1154.00
2181.45,1165.00
2182.88,1165.00
2184.31,1133.00
2185.74,1112.00
2187.17,1144.00
2188.59,1155.00
2190.02,1186.00
2191.44,1165.00
2192.87,1186.00
2194.29,1207.00
2195.71,1165.00
2197.13,1155.00
2198.55,1122.00
2199.97,1186.00
2201.39,1144.00
2202.81,1133.00
2204.22,1123.00
2205.64,1143.00
2207.05,1133.00
2208.46,1165.00
2209.88,1196.00
2211.29,1133.00
2212.70,1091.00
2214.11,1101.00
2215.52,1112.00
2216.92,1101.00
2218.33,1080.00
2219.74,1102.00
2221.14,1155.00
2222.54,1102.00
2223.95,1123.00
2225.35,1080.00
2226.75,1027.00
2228.15,1016.00
2229.55,1027.00
2230.95,1101.00
2232.35,1059.00
2233.74,1048.00
2235.14,1070.00
2236.53,1059.00
2237.93,1048.00
2239.32,1049.00
2240.71,985.00
2242.10,996.00
2243.49,1048.00
2244.88,1059.00
2246.27,1027.00
2247.66,1016.00
2249.04,1038.00
2250.43,1080.00
2251.81,1048.00
2253.20,1017.00
2254.58,1016.00
2255.96,996.00
2257.34,964.00
2258.72,953.00
2260.10,953.00
2261.48,942.00
2262.86,953.00
2264.23,995.00
2265.61,1006.00
2266.98,1059.00
2268.36,1017.00
2269.73,995.00
2271.10,932.00
2272.47,974.00
2273.84,911.00
2275.21,921.00
2276.58,953.00
2277.95,911.00
2279.31,879.00
2280.68,879.00
2282.05,942.00
2283.41,953.00
2284.77,890.00
2286.13,900.00
2287.50,932.00
2288.86,931.00
2290.22,953.00
2291.57,974.00
2292.93,889.00
2294.29,868.00
2295.64,974.00
2297.00,921.00
2298.35,890.00
2299.71,890.00
2301.06,869.00
2302.41,910.00
2303.76,889.00
2305.11,847.00
2306.46,900.00
2307.81,879.00
2309.15,900.00
2310.50,901.00
2311.84,858.00
2313.19,805.00
2314.53,869.00
2315.87,879.00
2317.22,878.00
2318.56,857.00
2319.90,857.00
2321.24,869.00
2322.57,890.00
2323.91,847.00
2325.25,890.00
2326.58,879.00
2327.92,869.00
2329.25,890.00
2330.58,836.00
2331.91,858.00
2333.25,837.00
2334.58,847.00
2335.90,836.00
2337.23,783.00
2338.56,858.00
2339.89,868.00
2341.21,816.00
2342.54,826.00
2343.86,837.00
2345.19,847.00
2346.51,826.00
2347.83,805.00
2349.15,773.00
2350.47,826.00
2351.79,816.00
2353.11,794.00
2354.42,795.00
2355.74,762.00
2357.06,762.00
2358.37,815.00
2359.68,794.00
2361.00,741.00
2362.31,752.00
2363.62,741.00
2364.93,720.00
2366.24,741.00
2367.55,720.00
2368.86,741.00
2370.16,752.00
2371.47,741.00
2372.77,741.00
2374.08,699.00
2375.38,742.00
2376.68,752.00
2377.98,720.00
2379.29,699.00
2380.59,741.00
2381.88,741.00
2383.18,763.00
2384.48,720.00
2385.78,699.00
2387.07,710.00
2388.37,677.00
2389.66,699.00
2390.95,720.00
2392.25,741.00
2393.54,763.00
2394.83,763.00
2396.12,709.00
2397.41,699.00
2398.70,752.00
2399.98,678.00
2401.27,699.00
2402.55,720.00
2403.84,752.00
2405.12,699.00
2406.41,710.00
2407.69,731.00
2408.97,667.00
2410.25,720.00
2411.53,688.00
2412.81,677.00
2414.09,656.00
2415.36,646.00
2416.64,657.00
2417.91,678.00
2419.19,678.00
2420.46,699.00
2421.74,657.00
2423.01,657.00
2424.28,636.00
2425.55,657.00
2426.82,677.00
2428.09,668.00
2429.36,677.00
2430.62,667.00
2431.89,657.00
2433.15,667.00
2434.42,656.00
2435.68,667.00
2436.94,635.00
2438.21,667.00
2439.47,668.00
2440.73,699.00
2441.99,624.00
2443.25,615.00
2444.51,625.00
2445.76,625.00
2447.02,603.00
2448.27,614.00
2449.53,551.00
2450.78,603.00
2452.03,667.00
2453.29,636.00
2454.54,593.00
2455.79,625.00
2457.04,593.00
2458.29,583.00
2459.54,614.00
2460.78,624.00
2462.03,624.00
2463.27,636.00
2464.52,614.00
2465.76,614.00
2467.01,603.00
2468.25,614.00
2469.49,593.00
2470.73,624.00
2471.97,678.00
2473.21,635.00
2474.45,540.00
2475.69,530.00
2476.92,562.00
2478.16,583.00
2479.39,582.00
2480.63,583.00
2481.86,582.00
2483.09,583.00
2484.32,582.00
2485.56,615.00
2486.79,625.00
2488.02,550.00
2489.24,562.00
2490.47,593.00
2491.70,572.00
2492.92,519.00
2494.15,519.00
2495.37,540.00
2496.60,561.00
2497.82,571.00
2499.04,530.00
2500.26,551.00
2501.48,551.00
2502.70,508.00
2503.92,550.00
2505.14,540.00
2506.36,551.00
2507.58,529.00
2508.79,572.00
2510.01,593.00
2511.22,530.00
2512.43,529.00
2513.64,508.00
2514.86,530.00
2516.07,572.00
2517.28,540.00
2518.49,562.00
2519.70,583.00
2520.90,530.00
2522.11,551.00
2523.32,519.00
2524.52,530.00
2525.73,529.00
2526.93,508.00
2528.13,487.00
2529.33,487.00
2530.54,498.00
2531.74,466.00
2532.94,540.00
2534.14,529.00
2535.33,519.00
2536.53,477.00
2537.73,498.00
2538.92,508.00
2540.12,487.00
2541.31,497.00
2542.51,519.00
2543.70,540.00
2544.89,540.00
2546.08,477.00
2547.27,497.00
2548.46,519.00
2549.65,509.00
2550.84,487.00
2552.03,455.00
2553.21,456.00
2554.40,434.00
2555.58,444.00
2556.77,466.00
2557.95,508.00
2559.13,498.00
2560.31,477.00
2561.50,465.00
2562.68,445.00
2563.85,508.00
2565.03,498.00
2566.21,424.00
2567.39,445.00
2568.56,466.00
2569.74,487.00
2570.91,487.00
2572.09,466.00
2573.26,455.00
2574.43,445.00
2575.61,413.00
2576.78,455.00
2577.95,488.00
2579.12,424.00
2580.29,445.00
2581.45,434.00
2582.62,423.00
2583.79,435.00
2584.95,445.00
2586.12,424.00
2587.28,424.00
2588.44,424.00
2589.61,413.00
2590.77,444.00
2591.93,445.00
2593.09,434.00
2594.25,424.00
2595.41,371.00
2596.56,382.00
2597.72,349.00
2598.88,434.00
2600.03,455.00
2601.19,424.00
2602.34,435.00
2603.50,424.00
2604.65,402.00
2605.80,370.00
2606.95,402.00
2608.10,423.00
2609.25,413.00
2610.40,434.00
2611.55,423.00
2612.70,381.00
2613.84,423.00
2614.99,392.00
2616.13,371.00
2617.28,381.00
2618.42,328.00
2619.56,349.00
2620.71,360.00
2621.85,339.00
2622.99,360.00
2624.13,445.00
2625.27,455.00
2626.40,434.00
2627.54,423.00
2628.68,392.00
2629.81,339.00
2630.95,307.00
2632.08,328.00
2633.22,360.00
2634.35,371.00
2635.48,381.00
2636.61,349.00
2637.74,328.00
2638.87,371.00
2640.00,381.00
2641.13,413.00
2642.26,392.00
2643.39,403.00
2644.51,360.00
2645.64,403.00
2646.76,381.00
2647.89,339.00
2649.01,371.00
2650.13,402.00
2651.25,360.00
2652.38,307.00
2653.50,318.00
2654.62,360.00
2655.73,318.00
2656.85,297.00
2657.97,350.00
2659.09,381.00
2660.20,371.00
2661.32,339.00
2662.43,360.00
2663.55,275.00
2664.66,296.00
2665.77,276.00
2666.88,275.00
2667.99,318.00
2669.10,392.00
2670.21,370.00
2671.32,360.00
2672.43,339.00
2673.54,329.00
2674.64,339.00
2675.75,360.00
2676.85,391.00
2677.96,328.00
2679.06,307.00
2680.16,339.00
2681.26,381.00
2682.37,360.00
2683.47,339.00
2684.57,350.00
2685.66,350.00
2686.76,339.00
2687.86,297.00
2688.96,275.00
2690.05,276.00
2691.15,296.00
2692.24,339.00
2693.34,297.00
2694.43,286.00
2695.52,339.00
2696.62,360.00
2697.71,349.00
2698.80,339.00
2699.89,297.00
2700.98,286.00
2702.06,318.00
2703.15,296.00
2704.24,286.00
2705.32,339.00
2706.41,317.00
2707.49,296.00
2708.58,296.00
2709.66,275.00
2710.74,255.00
2711.83,286.00
2712.91,286.00
2713.99,318.00
2715.07,286.00
2716.15,286.00
2717.22,307.00
2718.30,328.00
2719.38,317.00
2720.45,265.00
2721.53,296.00
2722.60,296.00
2723.68,276.00
2724.75,276.00
2725.82,265.00
2726.89,297.00
2727.97,276.00
2729.04,275.00
2730.11,275.00
2731.17,297.00
2732.24,254.00
2733.31,275.00
2734.38,255.00
2735.44,307.00
2736.51,339.00
2737.57,317.00
2738.64,328.00
2739.70,349.00
2740.76,307.00
2741.82,297.00
2742.89,296.00
2743.95,307.00
2745.01,297.00
2746.07,286.00
2747.12,328.00
2748.18,297.00
2749.24,275.00
2750.29,296.00
2751.35,254.00
2752.40,275.00
2753.46,222.00
2754.51,232.00
2755.57,265.00
2756.62,265.00
2757.67,233.00
2758.72,286.00
2759.77,276.00
2760.82,265.00
2761.87,232.00
2762.91,212.00
2763.96,255.00
2765.01,233.00
2766.05,233.00
2767.10,254.00
2768.14,264.00
2769.19,276.00
2770.23,339.00
2771.27,264.00
2772.31,233.00
2773.35,243.00
2774.40,233.00
2775.43,254.00
2776.47,233.00
2777.51,212.00
2778.55,222.00
2779.59,254.00
2780.62,243.00
2781.66,190.00
2782.69,211.00
2783.73,211.00
2784.76,254.00
2785.79,265.00
2786.82,212.00
2787.85,223.00
2788.89,254.00
2789.92,212.00
2790.94,222.00
2791.97,180.00
2793.00,223.00
2794.03,254.00
2795.05,201.00
2796.08,191.00
2797.11,212.00
2798.13,212.00
2799.15,223.00
2800.18,233.00
2801.20,255.00
2802.22,297.00
2803.24,286.00
2804.26,202.00
2805.28,201.00
2806.30,180.00
2807.32,191.00
2808.34,233.00
2809.35,233.00
2810.37,212.00
2811.39,212.00
2812.40,244.00
2813.41,191.00
2814.43,180.00
2815.44,191.00
2816.45,222.00
2817.46,254.00
2818.48,233.00
2819.49,233.00
2820.49,233.00
2821.50,223.00
2822.51,191.00
2823.52,222.00
2824.53,233.00
2825.53,255.00
2826.54,264.00
2827.54,212.00
2828.55,191.00
2829.55,190.00
2830.55,190.00
2831.55,222.00
2832.56,170.00
2833.56,170.00
2834.56,222.00
2835.56,201.00
2836.56,222.00
2837.55,243.00
2838.55,255.00
2839.55,243.00
2840.54,212.00
2841.54,212.00
2842.53,265.00
2843.53,233.00
2844.52,201.00
2845.51,191.00
2846.51,149.00
2847.50,169.00
2848.49,211.00
2849.48,190.00
2850.47,170.00
2851.46,190.00
2852.45,180.00
2853.43,233.00
2854.42,265.00
2855.41,255.00
2856.39,191.00
2857.38,191.00
2858.36,191.00
2859.34,212.00
2860.33,244.00
2861.31,201.00
2862.29,128.00
2863.27,170.00
2864.25,212.00
2865.23,233.00
2866.21,180.00
2867.19,180.00
2868.17,201.00
2869.14,223.00
2870.12,191.00
2871.09,180.00
2872.07,158.00
2873.04,170.00
2874.02,180.00
2874.99,180.00
2875.96,169.00
2876.93,180.00
2877.91,211.00
2878.88,190.00
2879.85,148.00
2880.82,170.00
2881.78,191.00
2882.75,170.00
2883.72,170.00
2884.69,169.00
2885.65,148.00
2886.62,190.00
2887.58,180.00
2888.55,222.00
2889.51,222.00
2890.47,202.00
2891.43,222.00
2892.39,191.00
2893.36,169.00
2894.31,159.00
2895.27,137.00
2896.23,158.00
2897.19,180.00
2898.15,191.00
2899.11,169.00
2900.06,201.00
2901.02,223.00
2901.97,169.00
2902.93,190.00
2903.88,212.00
2904.83,211.00
2905.79,170.00
2906.74,223.00
2907.69,233.00
2908.64,190.00
2909.59,159.00
2910.54,159.00
2911.49,169.00
2912.43,201.00
2913.38,212.00
2914.33,180.00
2915.27,212.00
2916.22,222.00
2917.16,180.00
2918.11,148.00
2919.05,148.00
2919.99,159.00
2920.94,159.00
2921.88,180.00
2922.82,191.00
2923.76,211.00
2924.70,159.00
2925.64,138.00
2926.58,170.00
2927.51,201.00
2928.45,212.00
2929.39,170.00
2930.32,138.00
2931.26,138.00
2932.19,170.00
2933.13,169.00
2934.06,116.00
2934.99,116.00
2935.92,106.00
2936.86,106.00
2937.79,169.00
2938.72,158.00
2939.65,106.00
2940.57,137.00
2941.50,169.00
2942.43,170.00
2943.36,191.00
2944.28,201.00
2945.21,191.00
2946.13,148.00
2947.06,106.00
2947.98,106.00
2948.91,138.00
2949.83,148.00
2950.75,106.00
2951.67,64.00
2952.59,96.00
2953.51,127.00
2954.43,138.00
2955.35,148.00
2956.27,117.00
2957.19,96.00
2958.10,169.00
2959.02,148.00
2959.94,148.00
2960.85,190.00
2961.77,138.00
2962.68,127.00
2963.59,158.00
2964.51,169.00
2965.42,127.00
2966.33,148.00
2967.24,159.00
2968.15,148.00
2969.06,106.00
2969.97,106.00
2970.88,148.00
2971.78,159.00
2972.69,169.00
2973.60,127.00
2974.50,116.00
2975.41,148.00
2976.31,170.00
2977.22,169.00
2978.12,180.00
2979.02,190.00
2979.93,128.00
2980.83,180.00
2981.73,148.00
2982.63,169.00
2983.53,170.00
2984.43,137.00
2985.33,127.00
2986.22,95.00
2987.12,137.00
2988.02,127.00
2988.91,106.00
2989.81,137.00
2990.70,169.00
2991.60,148.00
2992.49,127.00
2993.38,137.00
2994.28,127.00
2995.17,117.00
2996.06,106.00
2996.95,159.00
2997.84,127.00
2998.73,96.00
2999.62,137.00
3000.51,148.00
3001.40,127.00
3002.28,137.00
3003.17,137.00
3004.05,137.00
3004.94,149.00
3005.82,127.00
3006.71,148.00
3007.59,148.00
3008.47,116.00
3009.36,127.00
3010.24,106.00
3011.12,148.00
3012.00,106.00
3012.88,127.00
3013.76,148.00
3014.64,148.00
3015.51,149.00
3016.39,127.00
3017.27,127.00
3018.14,138.00
3019.02,149.00
3019.89,127.00
3020.77,127.00
3021.64,149.00
3022.52,148.00
3023.39,106.00
3024.26,127.00
3025.13,84.00
3026.00,85.00
3026.87,63.00
3027.74,95.00
3028.61,74.00
3029.48,74.00
3030.35,95.00
3031.21,127.00
3032.08,127.00
3032.95,127.00
3033.81,127.00
3034.68,127.00
3035.54,116.00
3036.40,127.00
3037.27,127.00
3038.13,117.00
3038.99,96.00
3039.85,106.00
3040.71,127.00
3041.57,96.00
3042.43,85.00
3043.29,95.00
3044.15,127.00
3045.01,64.00
3045.86,74.00
3046.72,116.00
3047.58,106.00
3048.43,96.00
3049.29,84.00
3050.14,64.00
3050.99,11.00
3051.85,106.00
3052.70,106.00
3053.55,149.00
3054.40,116.00
3055.25,95.00
3056.10,43.00
3056.95,105.00
3057.80,75.00
3058.65,63.00
3059.50,95.00
3060.34,95.00
3061.19,116.00
3062.04,106.00
3062.88,63.00
3063.73,74.00
3064.57,127.00
3065.42,106.00
3066.26,84.00
3067.10,63.00
3067.94,52.00
3068.78,63.00
3069.63,106.00
3070.47,116.00
3071.31,116.00
3072.14,127.00
3072.98,106.00
3073.82,53.00
3074.66,95.00
3075.49,138.00
3076.33,85.00
3077.17,95.00
3078.00,85.00
3078.83,43.00
3079.67,10.00
3080.50,95.00
3081.33,106.00
3082.17,64.00
3083.00,42.00
3083.83,84.00
3084.66,32.00
3085.49,0.00
3086.32,52.00
3087.15,84.00
3087.97,85.00
3088.80,74.00
3089.63,84.00
3090.46,43.00
3091.28,0.00
3092.11,52.00
3092.93,53.00
3093.75,53.00
3094.58,21.00
3095.40,53.00
3096.22,106.00
3097.05,32.00
3097.87,63.00
3098.69,127.00
3099.51,64.00
3100.33,95.00
3101.15,106.00
3101.96,85.00
3102.78,95.00
3103.60,127.00
3104.42,74.00
3105.23,32.00
3106.05,42.00
3106.86,64.00
3107.68,85.00
3108.49,53.00
3109.30,43.00
3110.12,21.00
3110.93,21.00
3111.74,53.00
3112.55,74.00
3113.36,64.00
3114.17,64.00
3114.98,127.00
3115.79,106.00
3116.60,106.00
3117.40,96.00
3118.21,53.00
3119.02,42.00
3119.82,75.00
3120.63,85.00
3121.43,74.00
3122.24,64.00
3123.04,85.00
3123.84,64.00
3124.65,95.00
3125.45,64.00
3126.25,21.00
3127.05,10.00
3127.85,85.00
3128.65,64.00
3129.45,21.00
3130.25,32.00
3131.05,95.00
3131.84,63.00
3132.64,74.00
3133.44,64.00
3134.23,42.00
3135.03,21.00
3135.82,31.00
3136.62,21.00
3137.41,-22.00
3138.20,42.00
3139.00,84.00
3139.79,74.00
3140.58,64.00
3141.37,64.00
3142.16,63.00
3142.95,53.00
3143.74,53.00
3144.53,32.00
3145.32,10.00
3146.10,84.00
3146.89,96.00
3147.68,96.00
3148.46,53.00
3149.25,53.00
3150.03,85.00
3150.82,95.00
3151.60,74.00
3152.38,21.00
3153.17,43.00
3153.95,10.00
3154.73,43.00
3155.51,64.00
3156.29,85.00
3157.07,85.00
3157.85,53.00
3158.63,42.00
3159.41,10.00
3160.18,0.00
3160.96,21.00
3161.74,32.00
3162.51,74.00
3163.29,85.00
3164.06,95.00
3164.84,74.00
3165.61,85.00
3166.38,85.00
3167.16,106.00
3167.93,64.00
3168.70,0.00
3169.47,42.00
3170.24,84.00
3171.01,85.00
3171.78,63.00
3172.55,85.00
3173.32,95.00
3174.09,85.00
3174.85,95.00
3175.62,116.00
3176.39,116.00
3177.15,63.00
3177.92,64.00
3178.68,106.00
3179.45,106.00
3180.21,75.00
3180.97,11.00
3181.73,32.00
3182.50,21.00
3183.26,85.00
3184.02,84.00
3184.78,42.00
3185.54,85.00
3186.30,138.00
3187.05,95.00
3187.81,42.00
3188.57,53.00
3189.33,63.00
3190.08,21.00
3190.84,63.00
3191.59,63.00
3192.35,10.00
3193.10,74.00
3193.86,63.00
3194.61,21.00
3195.36,53.00
3196.12,64.00
3196.87,74.00
3197.62,85.00
3198.37,138.00
3199.12,117.00
3199.87,42.00
3200.62,42.00
3201.36,42.00
3202.11,95.00
3202.86,127.00
3203.61,42.00
3204.35,11.00
3205.10,63.00
3205.84,63.00
3206.59,0.00
3207.33,31.00
3208.08,74.00
3208.82,64.00
3209.56,64.00
3210.30,53.00
3211.05,-42.00
3211.79,-22.00
3212.53,0.00
3213.27,64.00
3214.01,63.00
3214.75,74.00
3215.48,64.00
3216.22,10.00
3216.96,53.00
3217.69,95.00
3218.43,84.00
3219.17,53.00
3219.90,43.00
3220.64,53.00
3221.37,64.00
3222.10,21.00
3222.84,42.00
3223.57,32.00
3224.30,95.00
3225.03,96.00
3225.76,84.00
3226.49,85.00
3227.22,64.00
3227.95,21.00
3228.68,11.00
3229.41,0.00
3230.14,-10.00
3230.87,21.00
3231.59,0.00
3232.32,75.00
3233.04,64.00
3233.77,31.00
3234.49,85.00
3235.22,106.00
3235.94,74.00
3236.66,53.00
3237.39,21.00
3238.11,31.00
3238.83,43.00
3239.55,53.00
3240.27,52.00
3240.99,85.00
3241.71,64.00
3242.43,85.00
3243.15,74.00
3243.87,53.00
3244.58,42.00
3245.30,75.00
3246.02,53.00
3246.73,11.00
3247.45,63.00
3248.16,85.00
3248.88,64.00
3249.59,32.00
3250.30,32.00
3251.01,32.00
3251.73,42.00
3252.44,64.00
3253.15,85.00
3253.86,85.00
3254.57,96.00
3255.28,21.00
3255.99,22.00
3256.70,64.00
3257.41,53.00
3258.11,63.00
3258.82,64.00
3259.53,85.00
3260.23,64.00
3260.94,22.00
3261.64,10.00
3262.35,21.00
3263.05,31.00
3263.76,11.00
3264.46,0.00
3265.16,0.00
3265.86,0.00
3266.56,43.00
3267.26,63.00
3267.97,32.00
3268.67,0.00
3269.36,53.00
3270.06,42.00
3270.76,42.00
3271.46,43.00
3272.16,53.00
3272.85,0.00
