RamanShift,Intensity
180.91,222.00
183.74,286.00
186.56,317.00
189.39,381.00
192.21,561.00
195.03,741.00
197.84,1027.00
200.66,1313.00
203.47,1694.00
206.28,2043.00
209.09,2393.00
211.89,2552.00
214.70,2817.00
217.50,3018.00
220.30,3176.00
223.10,3272.00
225.89,3377.00
228.69,3441.00
231.48,3431.00
234.27,3483.00
237.05,3610.00
239.84,3558.00
242.62,3452.00
245.40,3399.00
248.18,3356.00
250.96,3356.00
253.73,3156.00
256.51,3145.00
259.28,3102.00
262.05,2986.00
264.81,2944.00
267.58,2881.00
270.34,2880.00
273.10,2933.00
275.86,2828.00
278.61,2774.00
281.37,2711.00
284.12,2658.00
286.87,2700.00
289.62,2785.00
292.36,2817.00
295.11,2764.00
297.85,2764.00
300.59,2743.00
303.33,2785.00
306.06,2647.00
308.80,2647.00
311.53,2690.00
314.26,2700.00
316.99,2721.00
319.71,2679.00
322.44,2701.00
325.16,2679.00
327.88,2616.00
330.59,2615.00
333.31,2637.00
336.02,2605.00
338.73,2616.00
341.44,2669.00
344.15,2722.00
346.86,2669.00
349.56,2658.00
352.26,2637.00
354.96,2605.00
357.66,2615.00
360.35,2605.00
363.05,2605.00
365.74,2658.00
368.43,2743.00
371.12,2700.00
373.80,2711.00
376.48,2742.00
379.17,2732.00
381.85,2764.00
384.52,2753.00
387.20,2743.00
389.87,2743.00
392.54,2743.00
395.21,2774.00
397.88,2785.00
400.55,2743.00
403.21,2742.00
405.87,2870.00
408.53,2860.00
411.19,2807.00
413.84,2796.00
416.50,2796.00
419.15,2764.00
421.80,2742.00
424.45,2647.00
427.10,2605.00
429.74,2627.00
432.38,2700.00
435.02,2742.00
437.66,2774.00
440.30,2764.00
442.93,2732.00
445.56,2774.00
448.19,2753.00
450.82,2679.00
453.45,2711.00
456.07,2732.00
458.70,2711.00
461.32,2785.00
463.94,2732.00
466.55,2700.00
469.17,2785.00
471.78,2764.00
474.39,2690.00
477.00,2658.00
479.61,2668.00
482.22,2658.00
484.82,2648.00
487.42,2573.00
490.02,2616.00
492.62,2626.00
495.21,2616.00
497.81,2647.00
500.40,2605.00
502.99,2647.00
505.58,2637.00
508.17,2616.00
510.75,2636.00
513.33,2563.00
515.91,2520.00
518.49,2574.00
521.07,2563.00
523.65,2509.00
526.22,2583.00
528.79,2690.00
531.36,2637.00
533.93,2584.00
536.49,2541.00
539.06,2541.00
541.62,2531.00
544.18,2531.00
546.74,2541.00
549.30,2647.00
551.85,2679.00
554.40,2573.00
556.95,2562.00
559.50,2531.00
562.05,2531.00
564.59,2520.00
567.14,2542.00
569.68,2563.00
572.22,2467.00
574.76,2457.00
577.29,2468.00
579.83,2509.00
582.36,2552.00
584.89,2552.00
587.42,2541.00
589.95,2425.00
592.47,2457.00
594.99,2478.00
597.52,2425.00
600.04,2425.00
602.55,2425.00
605.07,2425.00
607.58,2457.00
610.09,2499.00
612.60,2478.00
615.11,2415.00
617.62,2372.00
620.12,2340.00
622.63,2404.00
625.13,2329.00
627.63,2340.00
630.13,2415.00
632.62,2371.00
635.12,2371.00
637.61,2372.00
640.10,2393.00
642.59,2404.00
645.07,2266.00
647.56,2245.00
650.04,2308.00
652.52,2330.00
655.00,2372.00
657.48,2330.00
659.96,2319.00
662.43,2340.00
664.90,2266.00
667.37,2255.00
669.84,2267.00
672.31,2256.00
674.78,2256.00
677.24,2224.00
679.70,2245.00
682.16,2234.00
684.62,2266.00
687.08,2245.00
689.53,2203.00
691.98,2202.00
694.43,2234.00
696.88,2234.00
699.33,2170.00
701.78,2214.00
704.22,2234.00
706.66,2128.00
709.10,2096.00
711.54,2064.00
713.98,2118.00
716.42,2224.00
718.85,2181.00
721.28,2203.00
723.71,2255.00
726.14,2234.00
728.57,2213.00
730.99,2213.00
733.41,2309.00
735.83,2288.00
738.25,2202.00
740.67,2213.00
743.09,2170.00
745.50,2139.00
747.91,2118.00
750.33,2022.00
752.73,2011.00
755.14,2033.00
757.55,1969.00
759.95,1863.00
762.35,1949.00
764.75,1969.00
767.15,2012.00
769.55,2033.00
771.95,2012.00
774.34,1991.00
776.73,2012.00
779.12,1991.00
781.51,1948.00
783.90,1948.00
786.28,1959.00
788.67,1927.00
791.05,1884.00
793.43,1906.00
795.80,1916.00
798.18,1959.00
800.56,1937.00
802.93,1959.00
805.30,1927.00
807.67,1864.00
810.04,1874.00
812.40,1864.00
814.77,1885.00
817.13,1927.00
819.49,1906.00
821.85,1790.00
824.21,1884.00
826.57,1948.00
828.92,1896.00
831.27,1884.00
833.63,1863.00
835.98,1863.00
838.32,1853.00
840.67,1896.00
843.01,1842.00
845.36,1863.00
847.70,1853.00
850.04,1747.00
852.37,1737.00
854.71,1779.00
857.05,1779.00
859.38,1747.00
861.71,1726.00
864.04,1705.00
866.37,1694.00
868.69,1683.00
871.02,1768.00
873.34,1758.00
875.66,1694.00
877.98,1747.00
880.30,1779.00
882.62,1779.00
884.93,1726.00
887.24,1715.00
889.55,1747.00
891.86,1737.00
894.17,1705.00
896.48,1737.00
898.78,1758.00
901.09,1768.00
903.39,1726.00
905.69,1673.00
907.99,1641.00
910.28,1673.00
912.58,1651.00
914.87,1620.00
917.16,1631.00
919.45,1673.00
921.74,1694.00
924.03,1662.00
926.31,1662.00
928.60,1705.00
930.88,1651.00
933.16,1482.00
935.44,1504.00
937.72,1620.00
939.99,1620.00
942.26,1609.00
944.54,1588.00
946.81,1599.00
949.08,1610.00
951.34,1652.00
953.61,1694.00
955.87,1652.00
958.14,1567.00
960.40,1588.00
962.66,1609.00
964.92,1609.00
967.17,1620.00
969.43,1589.00
971.68,1599.00
973.93,1589.00
976.18,1567.00
978.43,1557.00
980.68,1546.00
982.92,1482.00
985.17,1461.00
987.41,1503.00
989.65,1546.00
991.89,1493.00
994.12,1493.00
996.36,1494.00
998.59,1461.00
1000.83,1398.00
1003.06,1409.00
1005.29,1461.00
1007.51,1536.00
1009.74,1525.00
1011.97,1471.00
1014.19,1451.00
1016.41,1440.00
1018.63,1440.00
1020.85,1461.00
1023.07,1493.00
1025.28,1503.00
1027.49,1450.00
1029.71,1440.00
1031.92,1493.00
1034.13,1430.00
1036.33,1409.00
1038.54,1493.00
1040.74,1493.00
1042.95,1440.00
1045.15,1462.00
1047.35,1461.00
1049.55,1398.00
1051.74,1398.00
1053.94,1377.00
1056.13,1482.00
1058.32,1535.00
1060.51,1472.00
1062.70,1450.00
1064.89,1419.00
1067.08,1355.00
1069.26,1345.00
1071.44,1366.00
1073.63,1408.00
1075.81,1356.00
1077.98,1355.00
1080.16,1451.00
1082.34,1377.00
1084.51,1377.00
1086.68,1366.00
1088.85,1335.00
1091.02,1334.00
1093.19,1345.00
1095.35,1376.00
1097.52,1387.00
1099.68,1366.00
1101.84,1303.00
1104.00,1356.00
1106.16,1366.00
1108.32,1356.00
1110.48,1335.00
1112.63,1281.00
1114.78,1292.00
1116.93,1355.00
1119.08,1334.00
1121.23,1335.00
1123.38,1345.00
1125.52,1345.00
1127.67,1345.00
1129.81,1303.00
1131.95,1334.00
1134.09,1281.00
1136.22,1217.00
1138.36,1271.00
1140.50,1261.00
1142.63,1292.00
1144.76,1314.00
1146.89,1250.00
1149.02,1197.00
1151.15,1228.00
1153.27,1207.00
1155.40,1207.00
1157.52,1186.00
1159.64,1176.00
1161.76,1197.00
1163.88,1186.00
1165.99,1239.00
1168.11,1218.00
1170.22,1291.00
1172.34,1282.00
1174.45,1229.00
1176.56,1229.00
1178.66,1207.00
1180.77,1218.00
1182.88,1186.00
1184.98,1186.00
1187.08,1133.00
1189.18,1123.00
1191.28,1165.00
1193.38,1143.00
1195.47,1165.00
1197.57,1186.00
1199.66,1197.00
1201.75,1218.00
1203.85,1218.00
1205.93,1165.00
1208.02,1143.00
1210.11,1186.00
1212.19,1186.00
1214.28,1122.00
1216.36,1122.00
1218.44,1143.00
1220.52,1186.00
1222.59,1208.00
1224.67,1176.00
1226.74,1165.00
1228.82,1154.00
1230.89,1143.00
1232.96,1133.00
1235.03,1165.00
1237.10,1165.00
1239.16,1123.00
1241.23,1123.00
1243.29,1186.00
1245.35,1186.00
1247.41,1143.00
1249.47,1186.00
1251.53,1154.00
1253.58,1143.00
1255.64,1197.00
1257.69,1186.00
1259.74,1165.00
1261.79,1133.00
1263.84,1122.00
1265.89,1155.00
1267.93,1091.00
1269.98,1080.00
1272.02,1080.00
1274.06,1080.00
1276.10,1154.00
1278.14,1122.00
1280.18,1059.00
1282.22,1070.00
1284.25,1101.00
1286.28,1122.00
1288.32,1122.00
1290.35,1059.00
1292.38,1123.00
1294.40,1133.00
1296.43,1102.00
1298.46,1080.00
1300.48,1070.00
1302.50,1112.00
1304.52,1059.00
1306.54,1048.00
1308.56,1038.00
1310.58,1006.00
1312.59,1027.00
1314.60,1091.00
1316.62,1090.00
1318.63,1154.00
1320.64,1123.00
1322.65,1058.00
1324.65,1101.00
1326.66,1123.00
1328.66,1080.00
1330.66,1090.00
1332.67,1143.00
1334.67,1111.00
1336.66,1038.00
1338.66,1017.00
1340.66,1017.00
1342.65,1080.00
1344.65,1017.00
1346.64,995.00
1348.63,1038.00
1350.62,1059.00
1352.60,1059.00
1354.59,1080.00
1356.57,1080.00
1358.56,1102.00
1360.54,1038.00
1362.52,1048.00
1364.50,1091.00
1366.48,1017.00
1368.46,1006.00
1370.43,1006.00
1372.41,996.00
1374.38,1049.00
1376.35,1123.00
1378.32,1069.00
1380.29,1070.00
1382.25,1038.00
1384.22,985.00
1386.18,985.00
1388.15,1038.00
1390.11,996.00
1392.07,953.00
1394.03,932.00
1395.99,953.00
1397.94,995.00
1399.90,985.00
1401.85,964.00
1403.80,964.00
1405.76,1017.00
1407.71,1017.00
1409.65,1027.00
1411.60,1048.00
1413.55,1017.00
1415.49,1017.00
1417.44,996.00
1419.38,964.00
1421.32,932.00
1423.26,889.00
1425.19,932.00
1427.13,985.00
1429.07,922.00
1431.00,890.00
1432.93,953.00
1434.86,953.00
1436.79,869.00
1438.72,878.00
1440.65,953.00
1442.57,953.00
1444.50,964.00
1446.42,889.00
1448.34,879.00
1450.26,932.00
1452.18,1006.00
1454.10,953.00
1456.02,932.00
1457.93,964.00
1459.85,974.00
1461.76,964.00
1463.67,943.00
1465.58,889.00
1467.49,869.00
1469.40,858.00
1471.31,805.00
1473.21,826.00
1475.11,857.00
1477.02,900.00
1478.92,879.00
1480.82,858.00
1482.72,847.00
1484.61,868.00
1486.51,879.00
1488.40,858.00
1490.30,847.00
1492.19,847.00
1494.08,837.00
1495.97,869.00
1497.86,911.00
1499.74,837.00
1501.63,826.00
1503.51,805.00
1505.40,868.00
1507.28,837.00
1509.16,826.00
1511.04,837.00
1512.92,816.00
1514.79,836.00
1516.67,847.00
1518.54,847.00
1520.42,847.00
1522.29,837.00
1524.16,805.00
1526.03,805.00
1527.89,784.00
1529.76,784.00
1531.63,815.00
1533.49,794.00
1535.35,794.00
1537.21,773.00
1539.07,784.00
1540.93,783.00
1542.79,773.00
1544.65,762.00
1546.50,804.00
1548.36,773.00
1550.21,783.00
1552.06,762.00
1553.91,709.00
1555.76,773.00
1557.61,826.00
1559.45,795.00
1561.30,762.00
1563.14,751.00
1564.98,763.00
1566.82,752.00
1568.67,762.00
1570.50,773.00
1572.34,763.00
1574.18,773.00
1576.01,762.00
1577.85,804.00
1579.68,784.00
1581.51,742.00
1583.34,773.00
1585.17,762.00
1587.00,720.00
1588.82,699.00
1590.65,688.00
1592.47,677.00
1594.30,721.00
1596.12,731.00
1597.94,752.00
1599.76,752.00
1601.57,773.00
1603.39,752.00
1605.21,741.00
1607.02,710.00
1608.83,709.00
1610.64,699.00
1612.45,720.00
1614.26,699.00
1616.07,677.00
1617.88,710.00
1619.68,721.00
1621.49,709.00
1623.29,784.00
1625.09,752.00
1626.89,699.00
1628.69,656.00
1630.49,667.00
1632.29,668.00
1634.08,656.00
1635.88,635.00
1637.67,636.00
1639.46,657.00
1641.25,646.00
1643.04,614.00
1644.83,593.00
1646.62,657.00
1648.41,720.00
1650.19,730.00
1651.97,689.00
1653.76,635.00
1655.54,646.00
1657.32,678.00
1659.10,699.00
1660.88,677.00
1662.65,657.00
1664.43,604.00
1666.20,625.00
1667.97,720.00
1669.75,656.00
1671.52,625.00
1673.29,604.00
1675.05,604.00
1676.82,614.00
1678.59,624.00
1680.35,635.00
1682.11,625.00
1683.88,604.00
1685.64,615.00
1687.40,635.00
1689.16,635.00
1690.91,571.00
1692.67,572.00
1694.42,625.00
1696.18,615.00
1697.93,635.00
1699.68,593.00
1701.43,572.00
1703.18,550.00
1704.93,519.00
1706.68,562.00
1708.42,593.00
1710.17,550.00
1711.91,572.00
1713.65,550.00
1715.39,572.00
1717.13,572.00
1718.87,530.00
1720.61,550.00
1722.35,572.00
1724.08,530.00
1725.81,508.00
1727.55,519.00
1729.28,498.00
1731.01,487.00
1732.74,530.00
1734.47,593.00
1736.19,571.00
1737.92,572.00
1739.64,540.00
1741.37,518.00
1743.09,550.00
1744.81,540.00
1746.53,562.00
1748.25,614.00
1749.97,561.00
1751.68,508.00
1753.40,498.00
1755.11,508.00
1756.83,508.00
1758.54,477.00
1760.25,508.00
1761.96,529.00
1763.67,551.00
1765.38,529.00
1767.08,498.00
1768.79,477.00
1770.49,509.00
1772.19,508.00
1773.90,476.00
1775.60,562.00
1777.30,529.00
1778.99,530.00
1780.69,509.00
1782.39,477.00
1784.08,477.00
1785.78,477.00
1787.47,508.00
1789.16,519.00
1790.85,508.00
1792.54,530.00
1794.23,550.00
1795.91,530.00
1797.60,508.00
1799.28,530.00
1800.97,487.00
1802.65,529.00
1804.33,487.00
1806.01,509.00
1807.69,509.00
1809.37,498.00
1811.05,487.00
1812.72,487.00
1814.40,550.00
1816.07,487.00
1817.74,529.00
1819.41,487.00
1821.08,456.00
1822.75,445.00
1824.42,487.00
1826.09,508.00
1827.75,509.00
1829.42,487.00
1831.08,466.00
1832.74,498.00
1834.40,487.00
1836.06,466.00
1837.72,444.00
1839.38,477.00
1841.04,445.00
1842.69,445.00
1844.35,466.00
1846.00,445.00
1847.65,424.00
1849.30,445.00
1850.95,498.00
1852.60,508.00
1854.25,456.00
1855.90,487.00
1857.54,476.00
1859.19,508.00
1860.83,498.00
1862.47,518.00
1864.12,519.00
1865.76,476.00
1867.40,402.00
1869.03,445.00
1870.67,423.00
1872.31,434.00
1873.94,465.00
1875.57,476.00
1877.21,434.00
1878.84,456.00
1880.47,424.00
1882.10,423.00
1883.73,424.00
1885.35,402.00
1886.98,423.00
1888.61,413.00
1890.23,424.00
1891.85,402.00
1893.47,424.00
1895.09,434.00
1896.71,424.00
1898.33,455.00
1899.95,445.00
1901.57,466.00
1903.18,423.00
1904.80,445.00
1906.41,455.00
1908.02,455.00
1909.63,423.00
1911.24,444.00
1912.85,424.00
1914.46,434.00
1916.07,423.00
1917.67,381.00
1919.28,403.00
1920.88,413.00
1922.48,413.00
1924.08,402.00
1925.68,402.00
1927.28,402.00
1928.88,423.00
1930.48,423.00
1932.07,413.00
1933.67,402.00
1935.26,371.00
1936.86,381.00
1938.45,402.00
1940.04,413.00
1941.63,434.00
1943.22,413.00
1944.80,381.00
1946.39,424.00
1947.98,402.00
1949.56,392.00
1951.14,360.00
1952.73,349.00
1954.31,402.00
1955.89,423.00
1957.47,360.00
1959.05,360.00
1960.62,381.00
1962.20,349.00
1963.77,360.00
1965.35,349.00
1966.92,360.00
1968.49,328.00
1970.06,349.00
1971.63,360.00
1973.20,360.00
1974.77,382.00
1976.34,382.00
1977.90,382.00
1979.47,403.00
1981.03,403.00
1982.59,403.00
1984.15,382.00
1985.71,339.00
1987.27,360.00
1988.83,307.00
1990.39,317.00
1991.94,381.00
1993.50,349.00
1995.05,382.00
1996.61,360.00
1998.16,423.00
1999.71,413.00
2001.26,391.00
2002.81,381.00
2004.36,381.00
2005.91,317.00
2007.45,317.00
2009.00,307.00
2010.54,360.00
2012.08,402.00
2013.62,338.00
2015.17,297.00
2016.71,317.00
2018.24,350.00
2019.78,402.00
2021.32,360.00
2022.85,339.00
2024.39,360.00
2025.92,339.00
2027.46,349.00
2028.99,318.00
2030.52,318.00
2032.05,350.00
2033.58,339.00
2035.10,297.00
2036.63,297.00
2038.16,307.00
2039.68,296.00
2041.21,286.00
2042.73,318.00
2044.25,286.00
2045.77,275.00
2047.29,265.00
2048.81,265.00
2050.33,254.00
2051.84,275.00
2053.36,286.00
2054.87,307.00
2056.39,360.00
2057.90,382.00
2059.41,339.00
2060.92,360.00
2062.43,307.00
2063.94,265.00
2065.45,307.00
2066.95,307.00
2068.46,297.00
2069.96,254.00
2071.47,254.00
2072.97,307.00
2074.47,307.00
2075.97,297.00
2077.47,286.00
2078.97,254.00
2080.47,276.00
2081.96,297.00
2083.46,286.00
2084.95,307.00
2086.45,328.00
2087.94,360.00
2089.43,307.00
2090.92,275.00
2092.41,296.00
2093.90,286.00
2095.39,307.00
2096.88,296.00
2098.36,254.00
2099.85,244.00
2101.33,276.00
2102.81,297.00
2104.30,276.00
2105.78,317.00
2107.26,329.00
2108.74,275.00
2110.21,233.00
2111.69,233.00
2113.17,243.00
2114.64,296.00
2116.12,297.00
2117.59,212.00
2119.06,254.00
2120.53,286.00
2122.00,307.00
2123.47,296.00
2124.94,265.00
2126.41,254.00
2127.87,244.00
2129.34,254.00
2130.80,255.00
2132.27,296.00
2133.73,275.00
2135.19,222.00
2136.65,212.00
2138.11,233.00
2139.57,254.00
2141.03,254.00
2142.48,254.00
2143.94,264.00
2145.39,233.00
2146.85,244.00
2148.30,244.00
2149.75,276.00
2151.20,276.00
2152.65,255.00
2154.10,275.00
2155.55,275.00
2157.00,254.00
2158.44,297.00
2159.89,265.00
2161.33,254.00
2162.78,264.00
2164.22,244.00
2165.66,243.00
2167.10,254.00
2168.54,285.00
2169.98,276.00
2171.42,254.00
2172.85,286.00
2174.29,297.00
2175.72,254.00
2177.16,244.00
2178.59,211.00
2180.02,233.00
2181.45,233.00
2182.88,190.00
2184.31,254.00
2185.74,286.00
2187.17,276.00
2188.59,276.00
2190.02,244.00
2191.44,275.00
2192.87,297.00
2194.29,276.00
2195.71,212.00
2197.13,297.00
2198.55,201.00
2199.97,212.00
2201.39,233.00
2202.81,190.00
2204.22,190.00
2205.64,201.00
2207.05,254.00
2208.46,244.00
2209.88,191.00
2211.29,169.00
2212.70,180.00
2214.11,180.00
2215.52,254.00
2216.92,276.00
2218.33,202.00
2219.74,190.00
2221.14,233.00
2222.54,233.00
2223.95,201.00
2225.35,170.00
2226.75,190.00
2228.15,211.00
2229.55,212.00
2230.95,275.00
2232.35,233.00
2233.74,212.00
2235.14,191.00
2236.53,169.00
2237.93,233.00
2239.32,243.00
2240.71,191.00
2242.10,191.00
2243.49,148.00
2244.88,191.00
2246.27,233.00
2247.66,222.00
2249.04,212.00
2250.43,233.00
2251.81,191.00
2253.20,191.00
2254.58,180.00
2255.96,212.00
2257.34,169.00
2258.72,191.00
2260.10,233.00
2261.48,212.00
2262.86,244.00
2264.23,233.00
2265.61,190.00
2266.98,223.00
2268.36,223.00
2269.73,211.00
2271.10,180.00
2272.47,212.00
2273.84,212.00
2275.21,180.00
2276.58,202.00
2277.95,212.00
2279.31,180.00
2280.68,180.00
2282.05,233.00
2283.41,243.00
2284.77,170.00
2286.13,201.00
2287.50,159.00
2288.86,191.00
2290.22,190.00
2291.57,169.00
2292.93,180.00
2294.29,190.00
2295.64,190.00
2297.00,170.00
2298.35,127.00
2299.71,148.00
2301.06,190.00
2302.41,180.00
2303.76,223.00
2305.11,201.00
2306.46,233.00
2307.81,191.00
2309.15,170.00
2310.50,201.00
2311.84,201.00
2313.19,190.00
2314.53,191.00
2315.87,201.00
2317.22,233.00
2318.56,201.00
2319.90,180.00
2321.24,159.00
2322.57,170.00
2323.91,159.00
2325.25,180.00
2326.58,191.00
2327.92,190.00
2329.25,180.00
2330.58,170.00
2331.91,170.00
2333.25,212.00
2334.58,148.00
2335.90,169.00
2337.23,169.00
2338.56,233.00
2339.89,201.00
2341.21,191.00
2342.54,170.00
2343.86,169.00
2345.19,180.00
2346.51,180.00
2347.83,159.00
2349.15,116.00
2350.47,137.00
2351.79,148.00
2353.11,148.00
2354.42,180.00
2355.74,180.00
2357.06,159.00
2358.37,148.00
2359.68,148.00
2361.00,191.00
2362.31,158.00
2363.62,148.00
2364.93,190.00
2366.24,169.00
2367.55,148.00
2368.86,137.00
2370.16,148.00
2371.47,180.00
2372.77,190.00
2374.08,170.00
2375.38,149.00
2376.68,148.00
2377.98,85.00
2379.29,106.00
2380.59,191.00
2381.88,148.00
2383.18,149.00
2384.48,169.00
2385.78,169.00
2387.07,170.00
2388.37,169.00
2389.66,148.00
2390.95,180.00
2392.25,169.00
2393.54,117.00
2394.83,127.00
2396.12,169.00
2397.41,158.00
2398.70,170.00
2399.98,117.00
2401.27,106.00
2402.55,127.00
2403.84,127.00
2405.12,149.00
2406.41,170.00
2407.69,170.00
2408.97,180.00
2410.25,127.00
2411.53,149.00
2412.81,169.00
2414.09,180.00
2415.36,170.00
2416.64,158.00
2417.91,127.00
2419.19,148.00
2420.46,159.00
2421.74,211.00
2423.01,201.00
2424.28,191.00
2425.55,148.00
2426.82,127.00
2428.09,148.00
2429.36,148.00
2430.62,180.00
2431.89,148.00
2433.15,169.00
2434.42,127.00
2435.68,106.00
2436.94,127.00
2438.21,169.00
2439.47,158.00
2440.73,169.00
2441.99,169.00
2443.25,149.00
2444.51,106.00
2445.76,106.00
2447.02,170.00
2448.27,169.00
2449.53,117.00
2450.78,127.00
2452.03,148.00
2453.29,127.00
2454.54,148.00
2455.79,127.00
2457.04,116.00
2458.29,105.00
2459.54,149.00
2460.78,117.00
2462.03,117.00
2463.27,84.00
2464.52,106.00
2465.76,137.00
2467.01,148.00
2468.25,127.00
2469.49,128.00
2470.73,159.00
2471.97,148.00
2473.21,127.00
2474.45,84.00
2475.69,137.00
2476.92,158.00
2478.16,169.00
2479.39,169.00
2480.63,127.00
2481.86,138.00
2483.09,138.00
2484.32,148.00
2485.56,169.00
2486.79,169.00
2488.02,117.00
2489.24,106.00
2490.47,148.00
2491.70,106.00
2492.92,138.00
2494.15,159.00
2495.37,212.00
2496.60,170.00
2497.82,138.00
2499.04,137.00
2500.26,116.00
2501.48,117.00
2502.70,148.00
2503.92,106.00
2505.14,127.00
2506.36,127.00
2507.58,127.00
2508.79,148.00
2510.01,170.00
2511.22,149.00
2512.43,127.00
2513.64,42.00
2514.86,21.00
2516.07,85.00
2517.28,117.00
2518.49,127.00
2519.70,95.00
2520.90,127.00
2522.11,148.00
2523.32,95.00
2524.52,138.00
2525.73,148.00
2526.93,106.00
2528.13,138.00
2529.33,170.00
2530.54,159.00
2531.74,138.00
2532.94,148.00
2534.14,96.00
2535.33,85.00
2536.53,127.00
2537.73,116.00
2538.92,138.00
2540.12,127.00
2541.31,117.00
2542.51,117.00
2543.70,85.00
2544.89,74.00
2546.08,128.00
2547.27,106.00
2548.46,85.00
2549.65,85.00
2550.84,95.00
2552.03,95.00
2553.21,106.00
2554.40,106.00
2555.58,106.00
2556.77,106.00
2557.95,106.00
2559.13,127.00
2560.31,128.00
2561.50,84.00
2562.68,85.00
2563.85,105.00
2565.03,148.00
2566.21,117.00
2567.39,96.00
2568.56,106.00
2569.74,148.00
2570.91,116.00
2572.09,96.00
2573.26,96.00
2574.43,74.00
2575.61,84.00
2576.78,106.00
2577.95,85.00
2579.12,127.00
2580.29,116.00
2581.45,148.00
2582.62,105.00
2583.79,106.00
2584.95,116.00
2586.12,116.00
2587.28,85.00
2588.44,85.00
2589.61,148.00
2590.77,169.00
2591.93,116.00
2593.09,106.00
2594.25,127.00
2595.41,116.00
2596.56,84.00
2597.72,63.00
2598.88,85.00
2600.03,127.00
2601.19,117.00
2602.34,85.00
2603.50,84.00
2604.65,85.00
2605.80,74.00
2606.95,32.00
2608.10,85.00
2609.25,106.00
2610.40,148.00
2611.55,159.00
2612.70,158.00
2613.84,116.00
2614.99,148.00
2616.13,117.00
2617.28,64.00
2618.42,63.00
2619.56,84.00
2620.71,106.00
2621.85,127.00
2622.99,127.00
2624.13,84.00
2625.27,138.00
2626.40,127.00
2627.54,106.00
2628.68,105.00
2629.81,127.00
2630.95,85.00
2632.08,63.00
2633.22,85.00
2634.35,96.00
2635.48,95.00
2636.61,106.00
2637.74,106.00
2638.87,64.00
2640.00,106.00
2641.13,96.00
2642.26,64.00
2643.39,106.00
2644.51,84.00
2645.64,106.00
2646.76,85.00
2647.89,53.00
2649.01,43.00
2650.13,85.00
2651.25,106.00
2652.38,96.00
2653.50,127.00
2654.62,106.00
2655.73,106.00
2656.85,96.00
2657.97,106.00
2659.09,106.00
2660.20,116.00
2661.32,138.00
2662.43,116.00
2663.55,85.00
2664.66,105.00
2665.77,117.00
2666.88,105.00
2667.99,85.00
2669.10,64.00
2670.21,96.00
2671.32,138.00
2672.43,148.00
2673.54,106.00
2674.64,85.00
2675.75,85.00
2676.85,85.00
2677.96,106.00
2679.06,85.00
2680.16,64.00
2681.26,95.00
2682.37,117.00
2683.47,105.00
2684.57,105.00
2685.66,85.00
2686.76,84.00
2687.86,43.00
2688.96,10.00
2690.05,64.00
2691.15,63.00
2692.24,106.00
2693.34,106.00
2694.43,85.00
2695.52,85.00
2696.62,106.00
2697.71,85.00
2698.80,64.00
2699.89,43.00
2700.98,43.00
2702.06,64.00
2703.15,95.00
2704.24,106.00
2705.32,63.00
2706.41,32.00
2707.49,21.00
2708.58,21.00
2709.66,21.00
2710.74,63.00
2711.83,95.00
2712.91,74.00
2713.99,43.00
2715.07,52.00
2716.15,42.00
2717.22,53.00
2718.30,74.00
2719.38,84.00
2720.45,42.00
2721.53,63.00
2722.60,63.00
2723.68,64.00
2724.75,32.00
2725.82,64.00
2726.89,85.00
2727.97,96.00
2729.04,85.00
2730.11,84.00
2731.17,106.00
2732.24,84.00
2733.31,64.00
2734.38,64.00
2735.44,64.00
2736.51,74.00
2737.57,85.00
2738.64,85.00
2739.70,85.00
2740.76,32.00
2741.82,42.00
2742.89,64.00
2743.95,53.00
2745.01,84.00
2746.07,85.00
2747.12,64.00
2748.18,32.00
2749.24,96.00
2750.29,96.00
2751.35,85.00
2752.40,43.00
2753.46,31.00
2754.51,74.00
2755.57,85.00
2756.62,138.00
2757.67,64.00
2758.72,96.00
2759.77,106.00
2760.82,74.00
2761.87,84.00
2762.91,85.00
2763.96,74.00
2765.01,32.00
2766.05,43.00
2767.10,32.00
2768.14,42.00
2769.19,85.00
2770.23,85.00
2771.27,84.00
2772.31,106.00
2773.35,106.00
2774.40,64.00
2775.43,31.00
2776.47,42.00
2777.51,53.00
2778.55,53.00
2779.59,32.00
2780.62,53.00
2781.66,85.00
2782.69,127.00
2783.73,106.00
2784.76,63.00
2785.79,42.00
2786.82,21.00
2787.85,43.00
2788.89,43.00
2789.92,42.00
2790.94,53.00
2791.97,21.00
2793.00,53.00
2794.03,43.00
2795.05,84.00
2796.08,84.00
2797.11,74.00
2798.13,64.00
2799.15,64.00
2800.18,21.00
2801.20,53.00
2802.22,64.00
2803.24,43.00
2804.26,63.00
2805.28,43.00
2806.30,85.00
2807.32,32.00
2808.34,85.00
2809.35,85.00
2810.37,64.00
2811.39,85.00
2812.40,84.00
2813.41,85.00
2814.43,74.00
2815.44,32.00
2816.45,53.00
2817.46,64.00
2818.48,63.00
2819.49,74.00
2820.49,42.00
2821.50,64.00
2822.51,43.00
2823.52,64.00
2824.53,127.00
2825.53,85.00
2826.54,85.00
2827.54,21.00
2828.55,42.00
2829.55,74.00
2830.55,21.00
2831.55,32.00
2832.56,74.00
2833.56,21.00
2834.56,53.00
2835.56,43.00
2836.56,21.00
2837.55,22.00
2838.55,53.00
2839.55,53.00
2840.54,85.00
2841.54,85.00
2842.53,43.00
2843.53,32.00
2844.52,64.00
2845.51,127.00
2846.51,64.00
2847.50,84.00
2848.49,85.00
2849.48,42.00
2850.47,85.00
2851.46,84.00
2852.45,43.00
2853.43,21.00
2854.42,21.00
2855.41,63.00
2856.39,43.00
2857.38,85.00
2858.36,117.00
2859.34,32.00
2860.33,53.00
2861.31,53.00
2862.29,32.00
2863.27,42.00
2864.25,11.00
2865.23,0.00
2866.21,63.00
2867.19,74.00
2868.17,53.00
2869.14,53.00
2870.12,43.00
2871.09,42.00
2872.07,52.00
2873.04,22.00
2874.02,85.00
2874.99,106.00
2875.96,21.00
2876.93,0.00
2877.91,63.00
2878.88,106.00
2879.85,74.00
2880.82,42.00
2881.78,42.00
2882.75,53.00
2883.72,64.00
2884.69,63.00
2885.65,74.00
2886.62,74.00
2887.58,85.00
2888.55,42.00
2889.51,74.00
2890.47,74.00
2891.43,42.00
2892.39,21.00
2893.36,10.00
2894.31,0.00
2895.27,63.00
2896.23,42.00
2897.19,42.00
2898.15,0.00
2899.11,-21.00
2900.06,42.00
2901.02,95.00
2901.97,64.00
2902.93,63.00
2903.88,64.00
2904.83,42.00
2905.79,21.00
2906.74,21.00
2907.69,21.00
2908.64,21.00
2909.59,63.00
2910.54,31.00
2911.49,0.00
2912.43,42.00
2913.38,43.00
2914.33,64.00
2915.27,106.00
2916.22,74.00
2917.16,85.00
2918.11,64.00
2919.05,-11.00
2919.99,0.00
2920.94,53.00
2921.88,53.00
2922.82,95.00
2923.76,53.00
2924.70,52.00
2925.64,21.00
2926.58,53.00
2927.51,32.00
2928.45,11.00
2929.39,52.00
2930.32,43.00
2931.26,22.00
2932.19,22.00
2933.13,31.00
2934.06,42.00
2934.99,11.00
2935.92,11.00
2936.86,43.00
2937.79,42.00
2938.72,42.00
2939.65,0.00
2940.57,-10.00
2941.50,21.00
2942.43,43.00
2943.36,21.00
2944.28,53.00
2945.21,21.00
2946.13,42.00
2947.06,43.00
2947.98,32.00
2948.91,75.00
2949.83,63.00
2950.75,21.00
2951.67,53.00
2952.59,74.00
2953.51,75.00
2954.43,96.00
2955.35,127.00
2956.27,106.00
2957.19,42.00
2958.10,43.00
2959.02,64.00
2959.94,63.00
2960.85,11.00
2961.77,-21.00
2962.68,53.00
2963.59,63.00
2964.51,43.00
2965.42,53.00
2966.33,0.00
2967.24,21.00
2968.15,11.00
2969.06,21.00
2969.97,84.00
2970.88,32.00
2971.78,0.00
2972.69,42.00
2973.60,74.00
2974.50,31.00
2975.41,22.00
2976.31,32.00
2977.22,42.00
2978.12,-21.00
2979.02,10.00
2979.93,85.00
2980.83,0.00
2981.73,10.00
2982.63,0.00
2983.53,10.00
2984.43,42.00
2985.33,84.00
2986.22,64.00
2987.12,42.00
2988.02,53.00
2988.91,10.00
2989.81,21.00
2990.70,42.00
2991.60,11.00
2992.49,21.00
2993.38,53.00
2994.28,64.00
2995.17,63.00
2996.06,42.00
2996.95,64.00
2997.84,53.00
2998.73,0.00
2999.62,0.00
3000.51,0.00
3001.40,-22.00
3002.28,0.00
3003.17,-11.00
3004.05,-21.00
3004.94,21.00
3005.82,-43.00
3006.71,-21.00
3007.59,0.00
3008.47,21.00
3009.36,53.00
3010.24,84.00
3011.12,32.00
3012.00,-10.00
3012.88,42.00
3013.76,64.00
3014.64,74.00
3015.51,32.00
3016.39,10.00
3017.27,21.00
3018.14,42.00
3019.02,42.00
3019.89,43.00
3020.77,42.00
3021.64,63.00
3022.52,43.00
3023.39,42.00
3024.26,21.00
3025.13,0.00
3026.00,53.00
3026.87,74.00
3027.74,32.00
3028.61,0.00
3029.48,42.00
3030.35,63.00
3031.21,11.00
3032.08,42.00
3032.95,10.00
3033.81,53.00
3034.68,64.00
3035.54,42.00
3036.40,0.00
3037.27,21.00
3038.13,64.00
3038.99,85.00
3039.85,85.00
3040.71,0.00
3041.57,-11.00
3042.43,-11.00
3043.29,63.00
3044.15,64.00
3045.01,53.00
3045.86,32.00
3046.72,75.00
3047.58,42.00
3048.43,42.00
3049.29,22.00
3050.14,42.00
3050.99,21.00
3051.85,74.00
3052.70,22.00
3053.55,0.00
3054.40,0.00
3055.25,21.00
3056.10,53.00
3056.95,31.00
3057.80,32.00
3058.65,63.00
3059.50,21.00
3060.34,63.00
3061.19,32.00
3062.04,21.00
3062.88,31.00
3063.73,-21.00
3064.57,11.00
3065.42,53.00
3066.26,85.00
3067.10,21.00
3067.94,52.00
3068.78,53.00
3069.63,43.00
3070.47,22.00
3071.31,0.00
3072.14,10.00
3072.98,43.00
3073.82,42.00
3074.66,53.00
3075.49,74.00
3076.33,74.00
3077.17,43.00
3078.00,-32.00
3078.83,-32.00
3079.67,0.00
3080.50,11.00
3081.33,-43.00
3082.17,0.00
3083.00,42.00
3083.83,0.00
3084.66,43.00
3085.49,64.00
3086.32,42.00
3087.15,0.00
3087.97,11.00
3088.80,10.00
3089.63,32.00
3090.46,75.00
3091.28,106.00
3092.11,42.00
3092.93,43.00
3093.75,21.00
3094.58,42.00
3095.40,32.00
3096.22,21.00
3097.05,42.00
3097.87,22.00
3098.69,0.00
3099.51,0.00
3100.33,64.00
3101.15,64.00
3101.96,11.00
3102.78,21.00
3103.60,21.00
3104.42,-21.00
3105.23,0.00
3106.05,11.00
3106.86,21.00
3107.68,74.00
3108.49,84.00
3109.30,95.00
3110.12,106.00
3110.93,84.00
3111.74,74.00
3112.55,85.00
3113.36,84.00
3114.17,21.00
3114.98,42.00
3115.79,63.00
3116.60,95.00
3117.40,64.00
3118.21,21.00
3119.02,42.00
3119.82,21.00
3120.63,-10.00
3121.43,32.00
3122.24,42.00
3123.04,21.00
3123.84,0.00
3124.65,0.00
3125.45,53.00
3126.25,42.00
3127.05,0.00
3127.85,0.00
3128.65,0.00
3129.45,42.00
3130.25,43.00
3131.05,0.00
3131.84,0.00
3132.64,53.00
3133.44,117.00
3134.23,106.00
3135.03,84.00
3135.82,63.00
3136.62,53.00
3137.41,10.00
3138.20,21.00
3139.00,0.00
3139.79,-32.00
3140.58,-21.00
3141.37,-74.00
3142.16,-95.00
3142.95,21.00
3143.74,32.00
3144.53,0.00
3145.32,0.00
3146.10,53.00
3146.89,21.00
3147.68,0.00
3148.46,53.00
3149.25,53.00
3150.03,85.00
3150.82,22.00
3151.60,53.00
3152.38,84.00
3153.17,74.00
3153.95,22.00
3154.73,11.00
3155.51,21.00
3156.29,0.00
3157.07,0.00
3157.85,22.00
3158.63,64.00
3159.41,42.00
3160.18,21.00
3160.96,85.00
3161.74,32.00
3162.51,21.00
3163.29,53.00
3164.06,43.00
3164.84,0.00
3165.61,-43.00
3166.38,10.00
3167.16,53.00
3167.93,43.00
3168.70,21.00
3169.47,11.00
3170.24,21.00
3171.01,42.00
3171.78,31.00
3172.55,43.00
3173.32,42.00
3174.09,10.00
3174.85,63.00
3175.62,74.00
3176.39,0.00
3177.15,0.00
3177.92,0.00
3178.68,32.00
3179.45,0.00
3180.21,-10.00
3180.97,11.00
3181.73,85.00
3182.50,53.00
3183.26,53.00
3184.02,42.00
3184.78,-11.00
3185.54,10.00
3186.30,0.00
3187.05,-31.00
3187.81,-11.00
3188.57,32.00
3189.33,21.00
3190.08,21.00
3190.84,0.00
3191.59,21.00
3192.35,43.00
3193.10,22.00
3193.86,11.00
3194.61,10.00
3195.36,32.00
3196.12,42.00
3196.87,42.00
3197.62,0.00
3198.37,32.00
3199.12,53.00
3199.87,32.00
3200.62,42.00
3201.36,0.00
3202.11,42.00
3202.86,74.00
3203.61,53.00
3204.35,42.00
3205.10,32.00
3205.84,21.00
3206.59,0.00
3207.33,-21.00
3208.08,0.00
3208.82,10.00
3209.56,43.00
3210.30,32.00
3211.05,0.00
3211.79,42.00
3212.53,85.00
3213.27,42.00
3214.01,21.00
3214.75,42.00
3215.48,22.00
3216.22,32.00
3216.96,53.00
3217.69,64.00
3218.43,42.00
3219.17,42.00
3219.90,63.00
3220.64,63.00
3221.37,32.00
3222.10,42.00
3222.84,32.00
3223.57,0.00
3224.30,10.00
3225.03,52.00
3225.76,11.00
3226.49,11.00
3227.22,53.00
3227.95,43.00
3228.68,43.00
3229.41,64.00
3230.14,-21.00
3230.87,10.00
3231.59,-21.00
3232.32,21.00
3233.04,21.00
3233.77,42.00
3234.49,21.00
3235.22,-11.00
3235.94,21.00
3236.66,0.00
3237.39,-10.00
3238.11,10.00
3238.83,74.00
3239.55,53.00
3240.27,64.00
3240.99,85.00
3241.71,43.00
3242.43,21.00
3243.15,22.00
3243.87,53.00
3244.58,74.00
3245.30,11.00
3246.02,21.00
3246.73,53.00
3247.45,53.00
3248.16,42.00
3248.88,0.00
3249.59,0.00
3250.30,42.00
3251.01,0.00
3251.73,0.00
3252.44,-21.00
3253.15,43.00
3253.86,53.00
3254.57,-10.00
3255.28,-53.00
3255.99,22.00
3256.70,53.00
3257.41,75.00
3258.11,53.00
3258.82,74.00
3259.53,116.00
3260.23,53.00
3260.94,21.00
3261.64,64.00
3262.35,74.00
3263.05,53.00
3263.76,74.00
3264.46,32.00
3265.16,53.00
3265.86,0.00
3266.56,21.00
3267.26,43.00
3267.97,-21.00
3268.67,10.00
3269.36,43.00
3270.06,53.00
3270.76,21.00
3271.46,-22.00
3272.16,0.00
3272.85,0.00
