RamanShift,Intensity
180.91,241.00
183.74,297.00
186.56,338.00
189.39,349.00
192.21,402.00
195.03,625.00
197.84,868.00
200.66,1090.00
203.47,1376.00
206.28,1673.00
209.09,1896.00
211.89,2033.00
214.70,2266.00
217.50,2467.00
220.30,2510.00
223.10,2520.00
225.89,2605.00
228.69,2764.00
231.48,2785.00
234.27,2796.00
237.05,2827.00
239.84,2838.00
242.62,2775.00
245.40,2775.00
248.18,2658.00
250.96,2552.00
253.73,2467.00
256.51,2456.00
259.28,2362.00
262.05,2287.00
264.81,2235.00
267.58,2161.00
270.34,2117.00
273.10,2107.00
275.86,2033.00
278.61,2118.00
281.37,2181.00
284.12,2160.00
286.87,2150.00
289.62,2107.00
292.36,2022.00
295.11,2012.00
297.85,2054.00
300.59,2043.00
303.33,1980.00
306.06,2001.00
308.80,2043.00
311.53,2065.00
314.26,2044.00
316.99,2012.00
319.71,2054.00
322.44,2001.00
325.16,2033.00
327.88,2086.00
330.59,2044.00
333.31,2022.00
336.02,2023.00
338.73,2002.00
341.44,1969.00
344.15,1980.00
346.86,1980.00
349.56,1895.00
352.26,1948.00
354.96,2002.00
357.66,1991.00
360.35,1959.00
363.05,1927.00
365.74,2033.00
368.43,2044.00
371.12,2055.00
373.80,2055.00
376.48,2054.00
379.17,2033.00
381.85,2012.00
384.52,2086.00
387.20,2097.00
389.87,2107.00
392.54,2118.00
395.21,2022.00
397.88,2033.00
400.55,2097.00
403.21,2097.00
405.87,2065.00
408.53,2023.00
411.19,2012.00
413.84,2044.00
416.50,2044.00
419.15,2044.00
421.80,2096.00
424.45,2044.00
427.10,2086.00
429.74,2150.00
432.38,2139.00
435.02,2054.00
437.66,2086.00
440.30,2086.00
442.93,2097.00
445.56,2118.00
448.19,2117.00
450.82,2065.00
453.45,2022.00
456.07,2064.00
458.70,2118.00
461.32,2054.00
463.94,2097.00
466.55,2171.00
469.17,2149.00
471.78,2118.00
474.39,2044.00
477.00,2096.00
479.61,2171.00
482.22,2139.00
484.82,2054.00
487.42,2012.00
490.02,2033.00
492.62,2086.00
495.21,2012.00
497.81,1959.00
500.40,1970.00
502.99,1969.00
505.58,1991.00
508.17,2033.00
510.75,1980.00
513.33,1948.00
515.91,2023.00
518.49,2022.00
521.07,1927.00
523.65,1906.00
526.22,1937.00
528.79,2001.00
531.36,2012.00
533.93,2054.00
536.49,2097.00
539.06,2108.00
541.62,2065.00
544.18,2086.00
546.74,2128.00
549.30,2043.00
551.85,2033.00
554.40,2065.00
556.95,2033.00
559.50,2023.00
562.05,1969.00
564.59,2001.00
567.14,1928.00
569.68,1927.00
572.22,2023.00
574.76,2033.00
577.29,1969.00
579.83,1959.00
582.36,2012.00
584.89,2012.00
587.42,1969.00
589.95,1948.00
592.47,1949.00
594.99,1959.00
597.52,1969.00
600.04,1948.00
602.55,1948.00
605.07,1991.00
607.58,2034.00
610.09,1991.00
612.60,1916.00
615.11,1874.00
617.62,1885.00
620.12,1896.00
622.63,1853.00
625.13,1854.00
627.63,1906.00
630.13,1864.00
632.62,1822.00
635.12,1843.00
637.61,1906.00
640.10,1864.00
642.59,1832.00
645.07,1779.00
647.56,1800.00
650.04,1800.00
652.52,1779.00
655.00,1779.00
657.48,1800.00
659.96,1864.00
662.43,1843.00
664.90,1726.00
667.37,1705.00
669.84,1758.00
672.31,1810.00
674.78,1884.00
677.24,1810.00
679.70,1811.00
682.16,1811.00
684.62,1821.00
687.08,1811.00
689.53,1810.00
691.98,1758.00
694.43,1800.00
696.88,1790.00
699.33,1757.00
701.78,1736.00
704.22,1695.00
706.66,1694.00
709.10,1768.00
711.54,1705.00
713.98,1705.00
716.42,1779.00
718.85,1843.00
721.28,1800.00
723.71,1789.00
726.14,1864.00
728.57,1885.00
730.99,1927.00
733.41,1949.00
735.83,1959.00
738.25,1843.00
740.67,1758.00
743.09,1779.00
745.50,1726.00
747.91,1715.00
750.33,1694.00
752.73,1609.00
755.14,1652.00
757.55,1726.00
759.95,1705.00
762.35,1715.00
764.75,1694.00
767.15,1694.00
769.55,1599.00
771.95,1535.00
774.34,1567.00
776.73,1578.00
779.12,1630.00
781.51,1609.00
783.90,1567.00
786.28,1567.00
788.67,1535.00
791.05,1567.00
793.43,1630.00
795.80,1610.00
798.18,1567.00
800.56,1546.00
802.93,1598.00
805.30,1567.00
807.67,1515.00
810.04,1525.00
812.40,1546.00
814.77,1525.00
817.13,1556.00
819.49,1567.00
821.85,1515.00
824.21,1514.00
826.57,1450.00
828.92,1461.00
831.27,1472.00
833.63,1461.00
835.98,1482.00
838.32,1514.00
840.67,1440.00
843.01,1387.00
845.36,1419.00
847.70,1461.00
850.04,1483.00
852.37,1472.00
854.71,1462.00
857.05,1472.00
859.38,1429.00
861.71,1419.00
864.04,1440.00
866.37,1418.00
868.69,1366.00
871.02,1440.00
873.34,1440.00
875.66,1398.00
877.98,1440.00
880.30,1387.00
882.62,1451.00
884.93,1429.00
887.24,1387.00
889.55,1397.00
891.86,1409.00
894.17,1387.00
896.48,1376.00
898.78,1324.00
901.09,1334.00
903.39,1376.00
905.69,1387.00
907.99,1430.00
910.28,1345.00
912.58,1366.00
914.87,1408.00
917.16,1366.00
919.45,1356.00
921.74,1335.00
924.03,1387.00
926.31,1387.00
928.60,1409.00
930.88,1398.00
933.16,1376.00
935.44,1376.00
937.72,1355.00
939.99,1324.00
942.26,1355.00
944.54,1366.00
946.81,1356.00
949.08,1398.00
951.34,1387.00
953.61,1356.00
955.87,1334.00
958.14,1313.00
960.40,1324.00
962.66,1366.00
964.92,1302.00
967.17,1281.00
969.43,1260.00
971.68,1313.00
973.93,1292.00
976.18,1249.00
978.43,1249.00
980.68,1250.00
982.92,1260.00
985.17,1271.00
987.41,1260.00
989.65,1260.00
991.89,1218.00
994.12,1229.00
996.36,1207.00
998.59,1197.00
1000.83,1186.00
1003.06,1186.00
1005.29,1249.00
1007.51,1239.00
1009.74,1229.00
1011.97,1249.00
1014.19,1271.00
1016.41,1292.00
1018.63,1281.00
1020.85,1239.00
1023.07,1207.00
1025.28,1208.00
1027.49,1196.00
1029.71,1207.00
1031.92,1239.00
1034.13,1186.00
1036.33,1176.00
1038.54,1175.00
1040.74,1186.00
1042.95,1208.00
1045.15,1186.00
1047.35,1186.00
1049.55,1218.00
1051.74,1250.00
1053.94,1239.00
1056.13,1239.00
1058.32,1186.00
1060.51,1208.00
1062.70,1144.00
1064.89,1154.00
1067.08,1144.00
1069.26,1186.00
1071.44,1250.00
1073.63,1176.00
1075.81,1165.00
1077.98,1175.00
1080.16,1186.00
1082.34,1133.00
1084.51,1144.00
1086.68,1133.00
1088.85,1101.00
1091.02,1122.00
1093.19,1080.00
1095.35,1080.00
1097.52,1091.00
1099.68,1112.00
1101.84,1122.00
1104.00,1102.00
1106.16,1144.00
1108.32,1154.00
1110.48,1186.00
1112.63,1102.00
1114.78,1080.00
1116.93,1112.00
1119.08,1133.00
1121.23,1123.00
1123.38,1101.00
1125.52,1091.00
1127.67,1101.00
1129.81,1102.00
1131.95,1090.00
1134.09,1101.00
1136.22,1058.00
1138.36,1049.00
1140.50,1038.00
1142.63,1038.00
1144.76,1112.00
1146.89,1112.00
1149.02,1038.00
1151.15,1059.00
1153.27,1091.00
1155.40,1048.00
1157.52,1048.00
1159.64,1059.00
1161.76,1027.00
1163.88,1038.00
1165.99,1048.00
1168.11,1059.00
1170.22,1069.00
1172.34,1006.00
1174.45,985.00
1176.56,1016.00
1178.66,1059.00
1180.77,1059.00
1182.88,1017.00
1184.98,1016.00
1187.08,1017.00
1189.18,1006.00
1191.28,1016.00
1193.38,985.00
1195.47,996.00
1197.57,1028.00
1199.66,1059.00
1201.75,1070.00
1203.85,1059.00
1205.93,1027.00
1208.02,1049.00
1210.11,1038.00
1212.19,1017.00
1214.28,974.00
1216.36,985.00
1218.44,985.00
1220.52,974.00
1222.59,1017.00
1224.67,996.00
1226.74,1016.00
1228.82,1006.00
1230.89,1017.00
1232.96,1028.00
1235.03,996.00
1237.10,953.00
1239.16,974.00
1241.23,943.00
1243.29,985.00
1245.35,996.00
1247.41,975.00
1249.47,985.00
1251.53,995.00
1253.58,974.00
1255.64,953.00
1257.69,1017.00
1259.74,1006.00
1261.79,1006.00
1263.84,995.00
1265.89,953.00
1267.93,953.00
1269.98,964.00
1272.02,943.00
1274.06,879.00
1276.10,932.00
1278.14,943.00
1280.18,953.00
1282.22,964.00
1284.25,985.00
1286.28,964.00
1288.32,953.00
1290.35,985.00
1292.38,911.00
1294.40,911.00
1296.43,932.00
1298.46,975.00
1300.48,996.00
1302.50,963.00
1304.52,974.00
1306.54,1017.00
1308.56,974.00
1310.58,932.00
1312.59,921.00
1314.60,985.00
1316.62,953.00
1318.63,953.00
1320.64,974.00
1322.65,1016.00
1324.65,1006.00
1326.66,996.00
1328.66,996.00
1330.66,1027.00
1332.67,1016.00
1334.67,1028.00
1336.66,1027.00
1338.66,974.00
1340.66,974.00
1342.65,964.00
1344.65,974.00
1346.64,943.00
1348.63,932.00
1350.62,932.00
1352.60,911.00
1354.59,890.00
1356.57,910.00
1358.56,868.00
1360.54,910.00
1362.52,879.00
1364.50,868.00
1366.48,889.00
1368.46,900.00
1370.43,932.00
1372.41,932.00
1374.38,932.00
1376.35,964.00
1378.32,911.00
1380.29,879.00
1382.25,922.00
1384.22,879.00
1386.18,889.00
1388.15,869.00
1390.11,900.00
1392.07,900.00
1394.03,931.00
1395.99,900.00
1397.94,900.00
1399.90,900.00
1401.85,837.00
1403.80,795.00
1405.76,815.00
1407.71,868.00
1409.65,890.00
1411.60,932.00
1413.55,900.00
1415.49,858.00
1417.44,848.00
1419.38,826.00
1421.32,805.00
1423.26,826.00
1425.19,858.00
1427.13,848.00
1429.07,826.00
1431.00,826.00
1432.93,836.00
1434.86,826.00
1436.79,826.00
1438.72,826.00
1440.65,805.00
1442.57,794.00
1444.50,783.00
1446.42,805.00
1448.34,784.00
1450.26,763.00
1452.18,815.00
1454.10,847.00
1456.02,763.00
1457.93,763.00
1459.85,826.00
1461.76,826.00
1463.67,837.00
1465.58,805.00
1467.49,773.00
1469.40,699.00
1471.31,741.00
1473.21,815.00
1475.11,783.00
1477.02,805.00
1478.92,805.00
1480.82,762.00
1482.72,783.00
1484.61,763.00
1486.51,763.00
1488.40,720.00
1490.30,698.00
1492.19,709.00
1494.08,720.00
1495.97,741.00
1497.86,731.00
1499.74,720.00
1501.63,731.00
1503.51,721.00
1505.40,741.00
1507.28,720.00
1509.16,741.00
1511.04,720.00
1512.92,699.00
1514.79,667.00
1516.67,699.00
1518.54,710.00
1520.42,720.00
1522.29,741.00
1524.16,751.00
1526.03,731.00
1527.89,731.00
1529.76,688.00
1531.63,677.00
1533.49,762.00
1535.35,720.00
1537.21,646.00
1539.07,646.00
1540.93,678.00
1542.79,668.00
1544.65,698.00
1546.50,710.00
1548.36,699.00
1550.21,678.00
1552.06,677.00
1553.91,741.00
1555.76,698.00
1557.61,763.00
1559.45,720.00
1561.30,689.00
1563.14,710.00
1564.98,699.00
1566.82,699.00
1568.67,688.00
1570.50,657.00
1572.34,636.00
1574.18,667.00
1576.01,678.00
1577.85,678.00
1579.68,678.00
1581.51,677.00
1583.34,593.00
1585.17,603.00
1587.00,635.00
1588.82,677.00
1590.65,615.00
1592.47,615.00
1594.30,583.00
1596.12,561.00
1597.94,646.00
1599.76,656.00
1601.57,614.00
1603.39,614.00
1605.21,614.00
1607.02,615.00
1608.83,667.00
1610.64,646.00
1612.45,636.00
1614.26,635.00
1616.07,646.00
1617.88,678.00
1619.68,657.00
1621.49,678.00
1623.29,614.00
1625.09,593.00
1626.89,604.00
1628.69,572.00
1630.49,572.00
1632.29,593.00
1634.08,593.00
1635.88,571.00
1637.67,614.00
1639.46,614.00
1641.25,582.00
1643.04,593.00
1644.83,541.00
1646.62,572.00
1648.41,593.00
1650.19,614.00
1651.97,540.00
1653.76,572.00
1655.54,561.00
1657.32,561.00
1659.10,583.00
1660.88,540.00
1662.65,561.00
1664.43,550.00
1666.20,498.00
1667.97,508.00
1669.75,508.00
1671.52,540.00
1673.29,615.00
1675.05,582.00
1676.82,625.00
1678.59,624.00
1680.35,583.00
1682.11,572.00
1683.88,551.00
1685.64,593.00
1687.40,583.00
1689.16,551.00
1690.91,530.00
1692.67,551.00
1694.42,519.00
1696.18,540.00
1697.93,604.00
1699.68,571.00
1701.43,561.00
1703.18,519.00
1704.93,455.00
1706.68,444.00
1708.42,508.00
1710.17,508.00
1711.91,497.00
1713.65,530.00
1715.39,508.00
1717.13,466.00
1718.87,487.00
1720.61,497.00
1722.35,562.00
1724.08,487.00
1725.81,487.00
1727.55,530.00
1729.28,498.00
1731.01,551.00
1732.74,540.00
1734.47,519.00
1736.19,508.00
1737.92,509.00
1739.64,487.00
1741.37,529.00
1743.09,519.00
1744.81,455.00
1746.53,445.00
1748.25,477.00
1749.97,466.00
1751.68,529.00
1753.40,508.00
1755.11,498.00
1756.83,477.00
1758.54,455.00
1760.25,498.00
1761.96,509.00
1763.67,487.00
1765.38,456.00
1767.08,498.00
1768.79,487.00
1770.49,477.00
1772.19,445.00
1773.90,456.00
1775.60,498.00
1777.30,487.00
1778.99,466.00
1780.69,487.00
1782.39,487.00
1784.08,423.00
1785.78,402.00
1787.47,434.00
1789.16,466.00
1790.85,456.00
1792.54,424.00
1794.23,487.00
1795.91,466.00
1797.60,477.00
1799.28,487.00
1800.97,466.00
1802.65,424.00
1804.33,392.00
1806.01,382.00
1807.69,424.00
1809.37,424.00
1811.05,445.00
1812.72,455.00
1814.40,445.00
1816.07,445.00
1817.74,445.00
1819.41,413.00
1821.08,445.00
1822.75,466.00
1824.42,466.00
1826.09,423.00
1827.75,424.00
1829.42,445.00
1831.08,403.00
1832.74,424.00
1834.40,403.00
1836.06,424.00
1837.72,466.00
1839.38,403.00
1841.04,434.00
1842.69,434.00
1844.35,392.00
1846.00,402.00
1847.65,423.00
1849.30,403.00
1850.95,402.00
1852.60,424.00
1854.25,424.00
1855.90,466.00
1857.54,434.00
1859.19,423.00
1860.83,413.00
1862.47,382.00
1864.12,392.00
1865.76,392.00
1867.40,381.00
1869.03,423.00
1870.67,403.00
1872.31,371.00
1873.94,391.00
1875.57,403.00
1877.21,435.00
1878.84,413.00
1880.47,381.00
1882.10,403.00
1883.73,403.00
1885.35,370.00
1886.98,403.00
1888.61,371.00
1890.23,382.00
1891.85,413.00
1893.47,403.00
1895.09,339.00
1896.71,349.00
1898.33,339.00
1899.95,360.00
1901.57,370.00
1903.18,403.00
1904.80,403.00
1906.41,381.00
1908.02,370.00
1909.63,350.00
1911.24,360.00
1912.85,392.00
1914.46,403.00
1916.07,402.00
1917.67,382.00
1919.28,360.00
1920.88,360.00
1922.48,392.00
1924.08,381.00
1925.68,317.00
1927.28,339.00
1928.88,339.00
1930.48,329.00
1932.07,360.00
1933.67,381.00
1935.26,381.00
1936.86,382.00
1938.45,317.00
1940.04,318.00
1941.63,339.00
1943.22,360.00
1944.80,402.00
1946.39,371.00
1947.98,296.00
1949.56,318.00
1951.14,349.00
1952.73,339.00
1954.31,339.00
1955.89,318.00
1957.47,339.00
1959.05,371.00
1960.62,349.00
1962.20,307.00
1963.77,307.00
1965.35,318.00
1966.92,318.00
1968.49,318.00
1970.06,318.00
1971.63,307.00
1973.20,296.00
1974.77,318.00
1976.34,328.00
1977.90,339.00
1979.47,349.00
1981.03,338.00
1982.59,296.00
1984.15,318.00
1985.71,339.00
1987.27,297.00
1988.83,318.00
1990.39,318.00
1991.94,276.00
1993.50,297.00
1995.05,307.00
1996.61,318.00
1998.16,307.00
1999.71,307.00
2001.26,317.00
2002.81,286.00
2004.36,297.00
2005.91,318.00
2007.45,318.00
2009.00,297.00
2010.54,318.00
2012.08,360.00
2013.62,339.00
2015.17,307.00
2016.71,296.00
2018.24,265.00
2019.78,275.00
2021.32,328.00
2022.85,339.00
2024.39,339.00
2025.92,318.00
2027.46,297.00
2028.99,307.00
2030.52,328.00
2032.05,296.00
2033.58,339.00
2035.10,371.00
2036.63,328.00
2038.16,297.00
2039.68,275.00
2041.21,275.00
2042.73,307.00
2044.25,296.00
2045.77,265.00
2047.29,265.00
2048.81,296.00
2050.33,276.00
2051.84,233.00
2053.36,255.00
2054.87,297.00
2056.39,318.00
2057.90,286.00
2059.41,265.00
2060.92,265.00
2062.43,243.00
2063.94,265.00
2065.45,254.00
2066.95,254.00
2068.46,275.00
2069.96,275.00
2071.47,317.00
2072.97,318.00
2074.47,254.00
2075.97,254.00
2077.47,275.00
2078.97,255.00
2080.47,233.00
2081.96,264.00
2083.46,286.00
2084.95,254.00
2086.45,265.00
2087.94,254.00
2089.43,254.00
2090.92,276.00
2092.41,254.00
2093.90,233.00
2095.39,254.00
2096.88,223.00
2098.36,276.00
2099.85,254.00
2101.33,254.00
2102.81,317.00
2104.30,296.00
2105.78,286.00
2107.26,265.00
2108.74,254.00
2110.21,296.00
2111.69,243.00
2113.17,223.00
2114.64,212.00
2116.12,170.00
2117.59,212.00
2119.06,255.00
2120.53,265.00
2122.00,276.00
2123.47,244.00
2124.94,254.00
2126.41,255.00
2127.87,254.00
2129.34,275.00
2130.80,244.00
2132.27,297.00
2133.73,244.00
2135.19,233.00
2136.65,244.00
2138.11,265.00
2139.57,233.00
2141.03,180.00
2142.48,233.00
2143.94,264.00
2145.39,244.00
2146.85,286.00
2148.30,276.00
2149.75,255.00
2151.20,264.00
2152.65,297.00
2154.10,275.00
2155.55,254.00
2157.00,233.00
2158.44,233.00
2159.89,212.00
2161.33,233.00
2162.78,233.00
2164.22,212.00
2165.66,212.00
2167.10,275.00
2168.54,233.00
2169.98,211.00
2171.42,254.00
2172.85,243.00
2174.29,222.00
2175.72,212.00
2177.16,212.00
2178.59,244.00
2180.02,233.00
2181.45,254.00
2182.88,222.00
2184.31,212.00
2185.74,265.00
2187.17,254.00
2188.59,233.00
2190.02,233.00
2191.44,244.00
2192.87,223.00
2194.29,170.00
2195.71,170.00
2197.13,201.00
2198.55,222.00
2199.97,254.00
2201.39,212.00
2202.81,223.00
2204.22,233.00
2205.64,201.00
2207.05,244.00
2208.46,233.00
2209.88,233.00
2211.29,223.00
2212.70,180.00
2214.11,180.00
2215.52,191.00
2216.92,149.00
2218.33,180.00
2219.74,233.00
2221.14,190.00
2222.54,233.00
2223.95,254.00
2225.35,233.00
2226.75,201.00
2228.15,190.00
2229.55,211.00
2230.95,212.00
2232.35,191.00
2233.74,137.00
2235.14,191.00
2236.53,211.00
2237.93,222.00
2239.32,212.00
2240.71,212.00
2242.10,212.00
2243.49,180.00
2244.88,212.00
2246.27,254.00
2247.66,233.00
2249.04,244.00
2250.43,211.00
2251.81,190.00
2253.20,191.00
2254.58,223.00
2255.96,244.00
2257.34,243.00
2258.72,244.00
2260.10,211.00
2261.48,191.00
2262.86,212.00
2264.23,191.00
2265.61,212.00
2266.98,222.00
2268.36,233.00
2269.73,233.00
2271.10,201.00
2272.47,222.00
2273.84,191.00
2275.21,180.00
2276.58,170.00
2277.95,149.00
2279.31,170.00
2280.68,180.00
2282.05,191.00
2283.41,148.00
2284.77,127.00
2286.13,191.00
2287.50,190.00
2288.86,138.00
2290.22,148.00
2291.57,191.00
2292.93,191.00
2294.29,148.00
2295.64,170.00
2297.00,212.00
2298.35,233.00
2299.71,201.00
2301.06,170.00
2302.41,201.00
2303.76,159.00
2305.11,138.00
2306.46,212.00
2307.81,233.00
2309.15,212.00
2310.50,212.00
2311.84,201.00
2313.19,233.00
2314.53,191.00
2315.87,127.00
2317.22,105.00
2318.56,127.00
2319.90,169.00
2321.24,159.00
2322.57,170.00
2323.91,169.00
2325.25,180.00
2326.58,169.00
2327.92,149.00
2329.25,85.00
2330.58,127.00
2331.91,149.00
2333.25,170.00
2334.58,191.00
2335.90,148.00
2337.23,170.00
2338.56,158.00
2339.89,148.00
2341.21,148.00
2342.54,180.00
2343.86,148.00
2345.19,95.00
2346.51,159.00
2347.83,180.00
2349.15,169.00
2350.47,127.00
2351.79,159.00
2353.11,180.00
2354.42,191.00
2355.74,137.00
2357.06,137.00
2358.37,149.00
2359.68,127.00
2361.00,170.00
2362.31,148.00
2363.62,169.00
2364.93,169.00
2366.24,170.00
2367.55,170.00
2368.86,127.00
2370.16,127.00
2371.47,159.00
2372.77,148.00
2374.08,159.00
2375.38,170.00
2376.68,159.00
2377.98,159.00
2379.29,158.00
2380.59,116.00
2381.88,117.00
2383.18,138.00
2384.48,127.00
2385.78,127.00
2387.07,148.00
2388.37,180.00
2389.66,201.00
2390.95,180.00
2392.25,159.00
2393.54,159.00
2394.83,149.00
2396.12,138.00
2397.41,148.00
2398.70,148.00
2399.98,106.00
2401.27,138.00
2402.55,148.00
2403.84,169.00
2405.12,158.00
2406.41,169.00
2407.69,169.00
2408.97,137.00
2410.25,106.00
2411.53,84.00
2412.81,138.00
2414.09,169.00
2415.36,149.00
2416.64,148.00
2417.91,105.00
2419.19,127.00
2420.46,138.00
2421.74,137.00
2423.01,148.00
2424.28,169.00
2425.55,148.00
2426.82,95.00
2428.09,138.00
2429.36,148.00
2430.62,169.00
2431.89,137.00
2433.15,117.00
2434.42,137.00
2435.68,148.00
2436.94,169.00
2438.21,211.00
2439.47,212.00
2440.73,138.00
2441.99,106.00
2443.25,138.00
2444.51,169.00
2445.76,148.00
2447.02,127.00
2448.27,127.00
2449.53,106.00
2450.78,116.00
2452.03,117.00
2453.29,127.00
2454.54,137.00
2455.79,117.00
2457.04,85.00
2458.29,137.00
2459.54,158.00
2460.78,116.00
2462.03,159.00
2463.27,148.00
2464.52,148.00
2465.76,170.00
2467.01,158.00
2468.25,117.00
2469.49,117.00
2470.73,85.00
2471.97,85.00
2473.21,148.00
2474.45,191.00
2475.69,190.00
2476.92,106.00
2478.16,106.00
2479.39,106.00
2480.63,95.00
2481.86,116.00
2483.09,106.00
2484.32,64.00
2485.56,42.00
2486.79,106.00
2488.02,127.00
2489.24,127.00
2490.47,116.00
2491.70,84.00
2492.92,74.00
2494.15,96.00
2495.37,159.00
2496.60,159.00
2497.82,148.00
2499.04,158.00
2500.26,137.00
2501.48,127.00
2502.70,148.00
2503.92,127.00
2505.14,95.00
2506.36,138.00
2507.58,85.00
2508.79,106.00
2510.01,117.00
2511.22,106.00
2512.43,127.00
2513.64,84.00
2514.86,42.00
2516.07,85.00
2517.28,127.00
2518.49,138.00
2519.70,106.00
2520.90,74.00
2522.11,106.00
2523.32,127.00
2524.52,127.00
2525.73,106.00
2526.93,116.00
2528.13,106.00
2529.33,85.00
2530.54,106.00
2531.74,106.00
2532.94,127.00
2534.14,127.00
2535.33,96.00
2536.53,170.00
2537.73,137.00
2538.92,84.00
2540.12,84.00
2541.31,138.00
2542.51,148.00
2543.70,127.00
2544.89,148.00
2546.08,106.00
2547.27,106.00
2548.46,85.00
2549.65,106.00
2550.84,148.00
2552.03,105.00
2553.21,127.00
2554.40,127.00
2555.58,127.00
2556.77,127.00
2557.95,137.00
2559.13,127.00
2560.31,106.00
2561.50,106.00
2562.68,127.00
2563.85,116.00
2565.03,63.00
2566.21,63.00
2567.39,53.00
2568.56,64.00
2569.74,127.00
2570.91,106.00
2572.09,84.00
2573.26,96.00
2574.43,106.00
2575.61,85.00
2576.78,106.00
2577.95,85.00
2579.12,85.00
2580.29,85.00
2581.45,85.00
2582.62,85.00
2583.79,106.00
2584.95,95.00
2586.12,127.00
2587.28,128.00
2588.44,64.00
2589.61,64.00
2590.77,106.00
2591.93,84.00
2593.09,85.00
2594.25,117.00
2595.41,137.00
2596.56,74.00
2597.72,74.00
2598.88,85.00
2600.03,106.00
2601.19,117.00
2602.34,106.00
2603.50,106.00
2604.65,116.00
2605.80,63.00
2606.95,53.00
2608.10,127.00
2609.25,64.00
2610.40,106.00
2611.55,85.00
2612.70,106.00
2613.84,105.00
2614.99,127.00
2616.13,128.00
2617.28,85.00
2618.42,85.00
2619.56,84.00
2620.71,106.00
2621.85,149.00
2622.99,148.00
2624.13,63.00
2625.27,42.00
2626.40,84.00
2627.54,85.00
2628.68,85.00
2629.81,96.00
2630.95,74.00
2632.08,42.00
2633.22,53.00
2634.35,106.00
2635.48,127.00
2636.61,117.00
2637.74,74.00
2638.87,32.00
2640.00,22.00
2641.13,53.00
2642.26,127.00
2643.39,106.00
2644.51,74.00
2645.64,85.00
2646.76,106.00
2647.89,105.00
2649.01,32.00
2650.13,64.00
2651.25,64.00
2652.38,42.00
2653.50,53.00
2654.62,85.00
2655.73,85.00
2656.85,53.00
2657.97,84.00
2659.09,64.00
2660.20,21.00
2661.32,43.00
2662.43,127.00
2663.55,85.00
2664.66,85.00
2665.77,96.00
2666.88,106.00
2667.99,85.00
2669.10,85.00
2670.21,96.00
2671.32,63.00
2672.43,85.00
2673.54,127.00
2674.64,74.00
2675.75,64.00
2676.85,63.00
2677.96,21.00
2679.06,53.00
2680.16,64.00
2681.26,85.00
2682.37,106.00
2683.47,74.00
2684.57,95.00
2685.66,64.00
2686.76,64.00
2687.86,116.00
2688.96,96.00
2690.05,85.00
2691.15,53.00
2692.24,74.00
2693.34,74.00
2694.43,96.00
2695.52,85.00
2696.62,64.00
2697.71,63.00
2698.80,95.00
2699.89,85.00
2700.98,53.00
2702.06,85.00
2703.15,63.00
2704.24,85.00
2705.32,84.00
2706.41,95.00
2707.49,95.00
2708.58,63.00
2709.66,42.00
2710.74,74.00
2711.83,127.00
2712.91,106.00
2713.99,85.00
2715.07,74.00
2716.15,74.00
2717.22,53.00
2718.30,43.00
2719.38,63.00
2720.45,84.00
2721.53,64.00
2722.60,53.00
2723.68,53.00
2724.75,22.00
2725.82,106.00
2726.89,96.00
2727.97,96.00
2729.04,85.00
2730.11,21.00
2731.17,64.00
2732.24,106.00
2733.31,96.00
2734.38,85.00
2735.44,64.00
2736.51,63.00
2737.57,53.00
2738.64,85.00
2739.70,116.00
2740.76,64.00
2741.82,74.00
2742.89,106.00
2743.95,64.00
2745.01,63.00
2746.07,53.00
2747.12,64.00
2748.18,63.00
2749.24,117.00
2750.29,159.00
2751.35,64.00
2752.40,74.00
2753.46,74.00
2754.51,53.00
2755.57,95.00
2756.62,106.00
2757.67,95.00
2758.72,64.00
2759.77,85.00
2760.82,106.00
2761.87,95.00
2762.91,43.00
2763.96,85.00
2765.01,85.00
2766.05,64.00
2767.10,85.00
2768.14,95.00
2769.19,64.00
2770.23,85.00
2771.27,127.00
2772.31,74.00
2773.35,64.00
2774.40,32.00
2775.43,21.00
2776.47,21.00
2777.51,42.00
2778.55,106.00
2779.59,85.00
2780.62,53.00
2781.66,42.00
2782.69,42.00
2783.73,31.00
2784.76,32.00
2785.79,52.00
2786.82,42.00
2787.85,64.00
2788.89,106.00
2789.92,74.00
2790.94,74.00
2791.97,43.00
2793.00,53.00
2794.03,43.00
2795.05,74.00
2796.08,84.00
2797.11,116.00
2798.13,117.00
2799.15,64.00
2800.18,85.00
2801.20,32.00
2802.22,64.00
2803.24,42.00
2804.26,11.00
2805.28,11.00
2806.30,84.00
2807.32,85.00
2808.34,64.00
2809.35,106.00
2810.37,74.00
2811.39,64.00
2812.40,74.00
2813.41,21.00
2814.43,74.00
2815.44,95.00
2816.45,63.00
2817.46,53.00
2818.48,63.00
2819.49,85.00
2820.49,64.00
2821.50,42.00
2822.51,96.00
2823.52,32.00
2824.53,32.00
2825.53,21.00
2826.54,42.00
2827.54,64.00
2828.55,74.00
2829.55,64.00
2830.55,42.00
2831.55,-11.00
2832.56,-32.00
2833.56,0.00
2834.56,53.00
2835.56,43.00
2836.56,74.00
2837.55,21.00
2838.55,21.00
2839.55,32.00
2840.54,64.00
2841.54,74.00
2842.53,63.00
2843.53,22.00
2844.52,0.00
2845.51,32.00
2846.51,43.00
2847.50,42.00
2848.49,42.00
2849.48,42.00
2850.47,74.00
2851.46,84.00
2852.45,64.00
2853.43,21.00
2854.42,53.00
2855.41,53.00
2856.39,42.00
2857.38,53.00
2858.36,21.00
2859.34,64.00
2860.33,95.00
2861.31,74.00
2862.29,42.00
2863.27,21.00
2864.25,0.00
2865.23,42.00
2866.21,74.00
2867.19,85.00
2868.17,0.00
2869.14,0.00
2870.12,21.00
2871.09,22.00
2872.07,42.00
2873.04,43.00
2874.02,53.00
2874.99,43.00
2875.96,63.00
2876.93,42.00
2877.91,32.00
2878.88,11.00
2879.85,0.00
2880.82,21.00
2881.78,21.00
2882.75,21.00
2883.72,11.00
2884.69,53.00
2885.65,42.00
2886.62,64.00
2887.58,85.00
2888.55,63.00
2889.51,21.00
2890.47,0.00
2891.43,-22.00
2892.39,21.00
2893.36,21.00
2894.31,64.00
2895.27,42.00
2896.23,42.00
2897.19,42.00
2898.15,64.00
2899.11,32.00
2900.06,42.00
2901.02,43.00
2901.97,53.00
2902.93,0.00
2903.88,32.00
2904.83,63.00
2905.79,64.00
2906.74,21.00
2907.69,63.00
2908.64,-10.00
2909.59,10.00
2910.54,42.00
2911.49,43.00
2912.43,84.00
2913.38,85.00
2914.33,63.00
2915.27,63.00
2916.22,63.00
2917.16,11.00
2918.11,0.00
2919.05,21.00
2919.99,21.00
2920.94,105.00
2921.88,106.00
2922.82,85.00
2923.76,0.00
2924.70,53.00
2925.64,21.00
2926.58,43.00
2927.51,42.00
2928.45,53.00
2929.39,52.00
2930.32,53.00
2931.26,42.00
2932.19,53.00
2933.13,74.00
2934.06,31.00
2934.99,0.00
2935.92,10.00
2936.86,11.00
2937.79,42.00
2938.72,53.00
2939.65,0.00
2940.57,0.00
2941.50,0.00
2942.43,0.00
2943.36,11.00
2944.28,53.00
2945.21,42.00
2946.13,32.00
2947.06,84.00
2947.98,75.00
2948.91,22.00
2949.83,53.00
2950.75,74.00
2951.67,84.00
2952.59,43.00
2953.51,53.00
2954.43,32.00
2955.35,0.00
2956.27,21.00
2957.19,21.00
2958.10,42.00
2959.02,85.00
2959.94,31.00
2960.85,0.00
2961.77,-10.00
2962.68,32.00
2963.59,10.00
2964.51,-21.00
2965.42,22.00
2966.33,52.00
2967.24,21.00
2968.15,53.00
2969.06,32.00
2969.97,63.00
2970.88,63.00
2971.78,0.00
2972.69,10.00
2973.60,63.00
2974.50,42.00
2975.41,0.00
2976.31,11.00
2977.22,43.00
2978.12,74.00
2979.02,0.00
2979.93,11.00
2980.83,21.00
2981.73,0.00
2982.63,0.00
2983.53,22.00
2984.43,53.00
2985.33,21.00
2986.22,53.00
2987.12,42.00
2988.02,21.00
2988.91,64.00
2989.81,32.00
2990.70,32.00
2991.60,11.00
2992.49,43.00
2993.38,63.00
2994.28,32.00
2995.17,22.00
2996.06,22.00
2996.95,0.00
2997.84,0.00
2998.73,42.00
2999.62,42.00
3000.51,21.00
3001.40,21.00
3002.28,42.00
3003.17,63.00
3004.05,32.00
3004.94,21.00
3005.82,-11.00
3006.71,0.00
3007.59,11.00
3008.47,-21.00
3009.36,0.00
3010.24,21.00
3011.12,64.00
3012.00,22.00
3012.88,52.00
3013.76,64.00
3014.64,63.00
3015.51,42.00
3016.39,22.00
3017.27,21.00
3018.14,21.00
3019.02,21.00
3019.89,95.00
3020.77,64.00
3021.64,64.00
3022.52,43.00
3023.39,21.00
3024.26,11.00
3025.13,21.00
3026.00,-22.00
3026.87,31.00
3027.74,74.00
3028.61,64.00
3029.48,22.00
3030.35,63.00
3031.21,105.00
3032.08,53.00
3032.95,64.00
3033.81,75.00
3034.68,21.00
3035.54,11.00
3036.40,10.00
3037.27,42.00
3038.13,-32.00
3038.99,-32.00
3039.85,53.00
3040.71,74.00
3041.57,85.00
3042.43,42.00
3043.29,0.00
3044.15,32.00
3045.01,-32.00
3045.86,21.00
3046.72,42.00
3047.58,0.00
3048.43,-10.00
3049.29,42.00
3050.14,42.00
3050.99,0.00
3051.85,0.00
3052.70,-21.00
3053.55,-10.00
3054.40,0.00
3055.25,10.00
3056.10,0.00
3056.95,10.00
3057.80,32.00
3058.65,0.00
3059.50,21.00
3060.34,42.00
3061.19,32.00
3062.04,32.00
3062.88,32.00
3063.73,43.00
3064.57,64.00
3065.42,42.00
3066.26,32.00
3067.10,43.00
3067.94,43.00
3068.78,53.00
3069.63,11.00
3070.47,84.00
3071.31,42.00
3072.14,0.00
3072.98,11.00
3073.82,0.00
3074.66,0.00
3075.49,43.00
3076.33,21.00
3077.17,42.00
3078.00,21.00
3078.83,21.00
3079.67,32.00
3080.50,22.00
3081.33,53.00
3082.17,74.00
3083.00,85.00
3083.83,21.00
3084.66,10.00
3085.49,42.00
3086.32,43.00
3087.15,10.00
3087.97,11.00
3088.80,64.00
3089.63,0.00
3090.46,-21.00
3091.28,52.00
3092.11,22.00
3092.93,64.00
3093.75,42.00
3094.58,42.00
3095.40,43.00
3096.22,84.00
3097.05,42.00
3097.87,32.00
3098.69,53.00
3099.51,43.00
3100.33,43.00
3101.15,64.00
3101.96,43.00
3102.78,63.00
3103.60,53.00
3104.42,32.00
3105.23,0.00
3106.05,0.00
3106.86,0.00
3107.68,21.00
3108.49,74.00
3109.30,43.00
3110.12,0.00
3110.93,0.00
3111.74,42.00
3112.55,42.00
3113.36,53.00
3114.17,42.00
3114.98,-21.00
3115.79,10.00
3116.60,53.00
3117.40,0.00
3118.21,-21.00
3119.02,-22.00
3119.82,42.00
3120.63,0.00
3121.43,-31.00
3122.24,42.00
3123.04,42.00
3123.84,0.00
3124.65,43.00
3125.45,32.00
3126.25,32.00
3127.05,43.00
3127.85,-10.00
3128.65,-10.00
3129.45,11.00
3130.25,42.00
3131.05,0.00
3131.84,0.00
3132.64,10.00
3133.44,0.00
3134.23,0.00
3135.03,10.00
3135.82,0.00
3136.62,-21.00
3137.41,21.00
3138.20,0.00
3139.00,42.00
3139.79,85.00
3140.58,63.00
3141.37,43.00
3142.16,32.00
3142.95,21.00
3143.74,42.00
3144.53,64.00
3145.32,43.00
3146.10,10.00
3146.89,53.00
3147.68,21.00
3148.46,42.00
3149.25,43.00
3150.03,63.00
3150.82,21.00
3151.60,21.00
3152.38,10.00
3153.17,74.00
3153.95,64.00
3154.73,32.00
3155.51,42.00
3156.29,21.00
3157.07,0.00
3157.85,53.00
3158.63,22.00
3159.41,31.00
3160.18,42.00
3160.96,22.00
3161.74,21.00
3162.51,-21.00
3163.29,-11.00
3164.06,43.00
3164.84,21.00
3165.61,53.00
3166.38,42.00
3167.16,21.00
3167.93,21.00
3168.70,43.00
3169.47,21.00
3170.24,-21.00
3171.01,-21.00
3171.78,11.00
3172.55,0.00
3173.32,11.00
3174.09,32.00
3174.85,42.00
3175.62,43.00
3176.39,21.00
3177.15,11.00
3177.92,0.00
3178.68,42.00
3179.45,64.00
3180.21,21.00
3180.97,0.00
3181.73,-11.00
3182.50,43.00
3183.26,22.00
3184.02,21.00
3184.78,10.00
3185.54,0.00
3186.30,53.00
3187.05,22.00
3187.81,0.00
3188.57,0.00
3189.33,-11.00
3190.08,-53.00
3190.84,21.00
3191.59,22.00
3192.35,0.00
3193.10,-22.00
3193.86,0.00
3194.61,43.00
3195.36,-11.00
3196.12,-32.00
3196.87,-42.00
3197.62,-22.00
3198.37,-11.00
3199.12,31.00
3199.87,42.00
3200.62,32.00
3201.36,75.00
3202.11,0.00
3202.86,42.00
3203.61,75.00
3204.35,63.00
3205.10,11.00
3205.84,-11.00
3206.59,10.00
3207.33,21.00
3208.08,0.00
3208.82,43.00
3209.56,95.00
3210.30,63.00
3211.05,32.00
3211.79,-31.00
3212.53,-21.00
3213.27,21.00
3214.01,0.00
3214.75,-21.00
3215.48,11.00
3216.22,32.00
3216.96,53.00
3217.69,32.00
3218.43,42.00
3219.17,32.00
3219.90,43.00
3220.64,42.00
3221.37,21.00
3222.10,53.00
3222.84,32.00
3223.57,11.00
3224.30,21.00
3225.03,-53.00
3225.76,-32.00
3226.49,0.00
3227.22,11.00
3227.95,10.00
3228.68,-21.00
3229.41,21.00
3230.14,32.00
3230.87,74.00
3231.59,74.00
3232.32,0.00
3233.04,0.00
3233.77,21.00
3234.49,0.00
3235.22,32.00
3235.94,21.00
3236.66,-21.00
3237.39,21.00
3238.11,0.00
3238.83,43.00
3239.55,53.00
3240.27,21.00
3240.99,-10.00
3241.71,-32.00
3242.43,-42.00
3243.15,21.00
3243.87,21.00
3244.58,0.00
3245.30,31.00
3246.02,64.00
3246.73,74.00
3247.45,32.00
3248.16,42.00
3248.88,21.00
3249.59,11.00
3250.30,0.00
3251.01,53.00
3251.73,74.00
3252.44,63.00
3253.15,10.00
3253.86,21.00
3254.57,21.00
3255.28,21.00
3255.99,21.00
3256.70,42.00
3257.41,32.00
3258.11,-32.00
3258.82,-42.00
3259.53,11.00
3260.23,-10.00
3260.94,-11.00
3261.64,42.00
3262.35,43.00
3263.05,-11.00
3263.76,11.00
3264.46,0.00
3265.16,11.00
3265.86,0.00
3266.56,0.00
3267.26,43.00
3267.97,85.00
3268.67,74.00
3269.36,32.00
3270.06,22.00
3270.76,0.00
3271.46,-10.00
3272.16,42.00
3272.85,0.00
