RamanShift,Intensity
180.91,381.00
183.74,413.00
186.56,498.00
189.39,741.00
192.21,1207.00
195.03,1821.00
197.84,2573.00
200.66,3547.00
203.47,4691.00
206.28,5941.00
209.09,7074.00
211.89,8143.00
214.70,9054.00
217.50,9763.00
220.30,10208.00
223.10,10610.00
225.89,10822.00
228.69,10970.00
231.48,11161.00
234.27,11330.00
237.05,11436.00
239.84,11373.00
242.62,11299.00
245.40,11097.00
248.18,11055.00
250.96,11151.00
253.73,11055.00
256.51,10727.00
259.28,10420.00
262.05,10229.00
264.81,10230.00
267.58,10208.00
270.34,10166.00
273.10,10165.00
275.86,10060.00
278.61,9890.00
281.37,9752.00
284.12,9848.00
286.87,9922.00
289.62,9985.00
292.36,10081.00
295.11,9986.00
297.85,9933.00
300.59,9965.00
303.33,9996.00
306.06,9933.00
308.80,9891.00
311.53,9911.00
314.26,9922.00
316.99,9827.00
319.71,9859.00
322.44,9901.00
325.16,9847.00
327.88,9869.00
330.59,9911.00
333.31,9774.00
336.02,9657.00
338.73,9773.00
341.44,9742.00
344.15,9720.00
346.86,9710.00
349.56,9615.00
352.26,9626.00
354.96,9795.00
357.66,9805.00
360.35,9901.00
363.05,9900.00
365.74,9869.00
368.43,10006.00
371.12,10102.00
373.80,9975.00
376.48,9996.00
379.17,10028.00
381.85,10050.00
384.52,10219.00
387.20,10313.00
389.87,10325.00
392.54,10335.00
395.21,10303.00
397.88,10314.00
400.55,10388.00
403.21,10388.00
405.87,10272.00
408.53,10219.00
411.19,10346.00
413.84,10367.00
416.50,10313.00
419.15,10166.00
421.80,10166.00
424.45,10229.00
427.10,10325.00
429.74,10356.00
432.38,10261.00
435.02,10219.00
437.66,10229.00
440.30,10198.00
442.93,10313.00
445.56,10304.00
448.19,10102.00
450.82,10102.00
453.45,10272.00
456.07,10240.00
458.70,10250.00
461.32,10314.00
463.94,10261.00
466.55,10261.00
469.17,10229.00
471.78,10357.00
474.39,10367.00
477.00,10304.00
479.61,10335.00
482.22,10304.00
484.82,10282.00
487.42,10155.00
490.02,10271.00
492.62,10335.00
495.21,10187.00
497.81,10070.00
500.40,9986.00
502.99,9975.00
505.58,10134.00
508.17,10155.00
510.75,10049.00
513.33,10059.00
515.91,10038.00
518.49,10038.00
521.07,10124.00
523.65,10091.00
526.22,9933.00
528.79,9890.00
531.36,9975.00
533.93,9986.00
536.49,10017.00
539.06,10070.00
541.62,10070.00
544.18,9953.00
546.74,9858.00
549.30,9890.00
551.85,10039.00
554.40,9879.00
556.95,9848.00
559.50,9997.00
562.05,9986.00
564.59,9890.00
567.14,9816.00
569.68,9785.00
572.22,9869.00
574.76,9848.00
577.29,9774.00
579.83,9732.00
582.36,9615.00
584.89,9647.00
587.42,9594.00
589.95,9668.00
592.47,9742.00
594.99,9562.00
597.52,9435.00
600.04,9435.00
602.55,9446.00
605.07,9339.00
607.58,9425.00
610.09,9425.00
612.60,9371.00
615.11,9308.00
617.62,9192.00
620.12,9202.00
622.63,9234.00
625.13,9202.00
627.63,9128.00
630.13,9107.00
632.62,9138.00
635.12,9011.00
637.61,8916.00
640.10,9054.00
642.59,9138.00
645.07,9043.00
647.56,9075.00
650.04,9012.00
652.52,9022.00
655.00,9138.00
657.48,9096.00
659.96,8969.00
662.43,8980.00
664.90,9053.00
667.37,9096.00
669.84,9011.00
672.31,8863.00
674.78,8821.00
677.24,8853.00
679.70,8841.00
682.16,8821.00
684.62,8811.00
687.08,8799.00
689.53,8906.00
691.98,8757.00
694.43,8725.00
696.88,8789.00
699.33,8789.00
701.78,8757.00
704.22,8757.00
706.66,8683.00
709.10,8578.00
711.54,8619.00
713.98,8673.00
716.42,8599.00
718.85,8630.00
721.28,8789.00
723.71,8884.00
726.14,8969.00
728.57,9053.00
730.99,9096.00
733.41,9117.00
735.83,9064.00
738.25,8863.00
740.67,8631.00
743.09,8588.00
745.50,8493.00
747.91,8312.00
750.33,8217.00
752.73,8153.00
755.14,8207.00
757.55,8239.00
759.95,8174.00
762.35,8080.00
764.75,8058.00
767.15,8048.00
769.55,8059.00
771.95,8037.00
774.34,7974.00
776.73,7974.00
779.12,7952.00
781.51,8101.00
783.90,7984.00
786.28,7793.00
788.67,7889.00
791.05,8016.00
793.43,8005.00
795.80,7995.00
798.18,7920.00
800.56,7868.00
802.93,7846.00
805.30,7804.00
807.67,7794.00
810.04,7825.00
812.40,7836.00
814.77,7783.00
817.13,7751.00
819.49,7666.00
821.85,7613.00
824.21,7486.00
826.57,7423.00
828.92,7402.00
831.27,7370.00
833.63,7508.00
835.98,7497.00
838.32,7402.00
840.67,7413.00
843.01,7455.00
845.36,7380.00
847.70,7296.00
850.04,7275.00
852.37,7285.00
854.71,7349.00
857.05,7275.00
859.38,7317.00
861.71,7265.00
864.04,7201.00
866.37,7105.00
868.69,7074.00
871.02,7116.00
873.34,7169.00
875.66,7105.00
877.98,7053.00
880.30,7010.00
882.62,7031.00
884.93,6936.00
887.24,6914.00
889.55,6967.00
891.86,7021.00
894.17,7020.00
896.48,7021.00
898.78,7084.00
901.09,6947.00
903.39,6904.00
905.69,6862.00
907.99,6819.00
910.28,6873.00
912.58,6904.00
914.87,6766.00
917.16,6745.00
919.45,6755.00
921.74,6745.00
924.03,6671.00
926.31,6639.00
928.60,6640.00
930.88,6597.00
933.16,6714.00
935.44,6766.00
937.72,6692.00
939.99,6618.00
942.26,6650.00
944.54,6639.00
946.81,6534.00
949.08,6629.00
951.34,6650.00
953.61,6640.00
955.87,6618.00
958.14,6629.00
960.40,6555.00
962.66,6523.00
964.92,6534.00
967.17,6470.00
969.43,6427.00
971.68,6449.00
973.93,6427.00
976.18,6385.00
978.43,6279.00
980.68,6269.00
982.92,6237.00
985.17,6173.00
987.41,6131.00
989.65,6110.00
991.89,6078.00
994.12,6089.00
996.36,6004.00
998.59,6109.00
1000.83,6131.00
1003.06,6068.00
1005.29,6057.00
1007.51,6079.00
1009.74,6079.00
1011.97,6109.00
1014.19,6099.00
1016.41,6089.00
1018.63,6025.00
1020.85,5898.00
1023.07,5834.00
1025.28,5951.00
1027.49,6068.00
1029.71,6015.00
1031.92,6004.00
1034.13,5961.00
1036.33,5834.00
1038.54,5866.00
1040.74,5909.00
1042.95,5855.00
1045.15,5803.00
1047.35,5845.00
1049.55,5919.00
1051.74,5877.00
1053.94,5909.00
1056.13,5887.00
1058.32,5814.00
1060.51,5729.00
1062.70,5771.00
1064.89,5866.00
1067.08,5782.00
1069.26,5665.00
1071.44,5707.00
1073.63,5750.00
1075.81,5718.00
1077.98,5686.00
1080.16,5707.00
1082.34,5728.00
1084.51,5687.00
1086.68,5591.00
1088.85,5591.00
1091.02,5591.00
1093.19,5591.00
1095.35,5580.00
1097.52,5602.00
1099.68,5623.00
1101.84,5538.00
1104.00,5496.00
1106.16,5528.00
1108.32,5591.00
1110.48,5549.00
1112.63,5517.00
1114.78,5422.00
1116.93,5464.00
1119.08,5528.00
1121.23,5464.00
1123.38,5390.00
1125.52,5369.00
1127.67,5411.00
1129.81,5390.00
1131.95,5337.00
1134.09,5379.00
1136.22,5316.00
1138.36,5210.00
1140.50,5199.00
1142.63,5231.00
1144.76,5284.00
1146.89,5316.00
1149.02,5189.00
1151.15,5199.00
1153.27,5210.00
1155.40,5221.00
1157.52,5135.00
1159.64,5115.00
1161.76,5125.00
1163.88,5114.00
1165.99,5115.00
1168.11,5125.00
1170.22,5115.00
1172.34,5157.00
1174.45,5125.00
1176.56,5019.00
1178.66,5008.00
1180.77,5040.00
1182.88,5051.00
1184.98,5083.00
1187.08,5083.00
1189.18,5040.00
1191.28,5061.00
1193.38,5030.00
1195.47,4966.00
1197.57,4892.00
1199.66,4935.00
1201.75,4998.00
1203.85,4945.00
1205.93,4988.00
1208.02,4966.00
1210.11,4903.00
1212.19,4967.00
1214.28,4945.00
1216.36,4861.00
1218.44,4892.00
1220.52,4924.00
1222.59,4871.00
1224.67,4839.00
1226.74,4956.00
1228.82,4946.00
1230.89,4881.00
1232.96,4924.00
1235.03,4956.00
1237.10,4924.00
1239.16,4861.00
1241.23,4808.00
1243.29,4797.00
1245.35,4786.00
1247.41,4744.00
1249.47,4765.00
1251.53,4786.00
1253.58,4723.00
1255.64,4648.00
1257.69,4586.00
1259.74,4691.00
1261.79,4733.00
1263.84,4670.00
1265.89,4532.00
1267.93,4522.00
1269.98,4617.00
1272.02,4680.00
1274.06,4585.00
1276.10,4670.00
1278.14,4713.00
1280.18,4628.00
1282.22,4564.00
1284.25,4490.00
1286.28,4543.00
1288.32,4521.00
1290.35,4522.00
1292.38,4479.00
1294.40,4384.00
1296.43,4427.00
1298.46,4522.00
1300.48,4511.00
1302.50,4437.00
1304.52,4405.00
1306.54,4415.00
1308.56,4458.00
1310.58,4437.00
1312.59,4405.00
1314.60,4426.00
1316.62,4437.00
1318.63,4479.00
1320.64,4564.00
1322.65,4616.00
1324.65,4595.00
1326.66,4669.00
1328.66,4691.00
1330.66,4648.00
1332.67,4574.00
1334.67,4733.00
1336.66,4712.00
1338.66,4521.00
1340.66,4490.00
1342.65,4480.00
1344.65,4416.00
1346.64,4437.00
1348.63,4395.00
1350.62,4320.00
1352.60,4310.00
1354.59,4214.00
1356.57,4246.00
1358.56,4267.00
1360.54,4183.00
1362.52,4183.00
1364.50,4225.00
1366.48,4193.00
1368.46,4183.00
1370.43,4140.00
1372.41,4215.00
1374.38,4172.00
1376.35,4119.00
1378.32,4204.00
1380.29,4194.00
1382.25,4141.00
1384.22,4151.00
1386.18,4119.00
1388.15,4077.00
1390.11,4088.00
1392.07,4119.00
1394.03,4151.00
1395.99,4182.00
1397.94,4119.00
1399.90,4088.00
1401.85,4034.00
1403.80,4162.00
1405.76,4204.00
1407.71,4056.00
1409.65,3992.00
1411.60,3971.00
1413.55,3950.00
1415.49,3971.00
1417.44,4003.00
1419.38,4045.00
1421.32,3939.00
1423.26,3759.00
1425.19,3812.00
1427.13,3886.00
1429.07,3876.00
1431.00,3791.00
1432.93,3759.00
1434.86,3749.00
1436.79,3822.00
1438.72,3865.00
1440.65,3865.00
1442.57,3822.00
1444.50,3844.00
1446.42,3802.00
1448.34,3780.00
1450.26,3844.00
1452.18,3749.00
1454.10,3695.00
1456.02,3696.00
1457.93,3696.00
1459.85,3759.00
1461.76,3791.00
1463.67,3781.00
1465.58,3716.00
1467.49,3696.00
1469.40,3706.00
1471.31,3632.00
1473.21,3633.00
1475.11,3685.00
1477.02,3632.00
1478.92,3685.00
1480.82,3727.00
1482.72,3653.00
1484.61,3589.00
1486.51,3621.00
1488.40,3622.00
1490.30,3653.00
1492.19,3590.00
1494.08,3516.00
1495.97,3547.00
1497.86,3537.00
1499.74,3463.00
1501.63,3505.00
1503.51,3484.00
1505.40,3516.00
1507.28,3484.00
1509.16,3474.00
1511.04,3536.00
1512.92,3548.00
1514.79,3483.00
1516.67,3495.00
1518.54,3484.00
1520.42,3441.00
1522.29,3399.00
1524.16,3421.00
1526.03,3516.00
1527.89,3495.00
1529.76,3378.00
1531.63,3368.00
1533.49,3431.00
1535.35,3495.00
1537.21,3505.00
1539.07,3420.00
1540.93,3399.00
1542.79,3452.00
1544.65,3421.00
1546.50,3410.00
1548.36,3410.00
1550.21,3389.00
1552.06,3293.00
1553.91,3283.00
1555.76,3314.00
1557.61,3336.00
1559.45,3272.00
1561.30,3251.00
1563.14,3209.00
1564.98,3208.00
1566.82,3208.00
1568.67,3156.00
1570.50,3156.00
1572.34,3219.00
1574.18,3251.00
1576.01,3198.00
1577.85,3145.00
1579.68,3102.00
1581.51,3103.00
1583.34,3198.00
1585.17,3177.00
1587.00,3123.00
1588.82,3060.00
1590.65,3039.00
1592.47,3039.00
1594.30,3040.00
1596.12,3082.00
1597.94,3124.00
1599.76,3081.00
1601.57,3018.00
1603.39,3018.00
1605.21,3050.00
1607.02,3018.00
1608.83,3060.00
1610.64,3008.00
1612.45,2965.00
1614.26,3007.00
1616.07,2997.00
1617.88,2965.00
1619.68,2976.00
1621.49,2997.00
1623.29,2975.00
1625.09,2954.00
1626.89,2912.00
1628.69,2987.00
1630.49,2933.00
1632.29,2859.00
1634.08,2849.00
1635.88,2806.00
1637.67,2817.00
1639.46,2859.00
1641.25,2806.00
1643.04,2849.00
1644.83,2796.00
1646.62,2796.00
1648.41,2912.00
1650.19,2891.00
1651.97,2806.00
1653.76,2817.00
1655.54,2774.00
1657.32,2859.00
1659.10,2774.00
1660.88,2732.00
1662.65,2753.00
1664.43,2742.00
1666.20,2732.00
1667.97,2711.00
1669.75,2668.00
1671.52,2679.00
1673.29,2722.00
1675.05,2700.00
1676.82,2647.00
1678.59,2573.00
1680.35,2584.00
1682.11,2605.00
1683.88,2605.00
1685.64,2604.00
1687.40,2595.00
1689.16,2562.00
1690.91,2563.00
1692.67,2520.00
1694.42,2552.00
1696.18,2510.00
1697.93,2542.00
1699.68,2616.00
1701.43,2574.00
1703.18,2489.00
1704.93,2488.00
1706.68,2521.00
1708.42,2531.00
1710.17,2456.00
1711.91,2414.00
1713.65,2499.00
1715.39,2542.00
1717.13,2489.00
1718.87,2542.00
1720.61,2541.00
1722.35,2510.00
1724.08,2435.00
1725.81,2383.00
1727.55,2341.00
1729.28,2372.00
1731.01,2414.00
1732.74,2415.00
1734.47,2372.00
1736.19,2340.00
1737.92,2362.00
1739.64,2382.00
1741.37,2372.00
1743.09,2330.00
1744.81,2308.00
1746.53,2298.00
1748.25,2277.00
1749.97,2309.00
1751.68,2288.00
1753.40,2266.00
1755.11,2298.00
1756.83,2319.00
1758.54,2277.00
1760.25,2267.00
1761.96,2245.00
1763.67,2340.00
1765.38,2372.00
1767.08,2234.00
1768.79,2213.00
1770.49,2150.00
1772.19,2118.00
1773.90,2096.00
1775.60,2203.00
1777.30,2192.00
1778.99,2182.00
1780.69,2182.00
1782.39,2161.00
1784.08,2181.00
1785.78,2160.00
1787.47,2139.00
1789.16,2108.00
1790.85,2139.00
1792.54,2203.00
1794.23,2203.00
1795.91,2139.00
1797.60,2139.00
1799.28,2064.00
1800.97,2076.00
1802.65,2097.00
1804.33,2139.00
1806.01,2117.00
1807.69,2096.00
1809.37,2128.00
1811.05,2171.00
1812.72,2139.00
1814.40,2170.00
1816.07,2118.00
1817.74,2139.00
1819.41,2160.00
1821.08,2097.00
1822.75,2118.00
1824.42,2076.00
1826.09,2033.00
1827.75,2055.00
1829.42,2065.00
1831.08,2076.00
1832.74,2086.00
1834.40,2033.00
1836.06,1970.00
1837.72,1970.00
1839.38,2034.00
1841.04,2022.00
1842.69,1980.00
1844.35,2012.00
1846.00,1980.00
1847.65,2012.00
1849.30,2022.00
1850.95,1981.00
1852.60,1991.00
1854.25,1949.00
1855.90,1959.00
1857.54,1917.00
1859.19,1948.00
1860.83,2001.00
1862.47,1906.00
1864.12,1906.00
1865.76,1928.00
1867.40,1885.00
1869.03,1917.00
1870.67,1927.00
1872.31,1917.00
1873.94,1959.00
1875.57,1917.00
1877.21,1874.00
1878.84,1800.00
1880.47,1779.00
1882.10,1779.00
1883.73,1801.00
1885.35,1821.00
1886.98,1821.00
1888.61,1832.00
1890.23,1853.00
1891.85,1822.00
1893.47,1822.00
1895.09,1800.00
1896.71,1748.00
1898.33,1758.00
1899.95,1811.00
1901.57,1726.00
1903.18,1758.00
1904.80,1822.00
1906.41,1810.00
1908.02,1800.00
1909.63,1726.00
1911.24,1758.00
1912.85,1715.00
1914.46,1758.00
1916.07,1726.00
1917.67,1694.00
1919.28,1683.00
1920.88,1704.00
1922.48,1737.00
1924.08,1715.00
1925.68,1737.00
1927.28,1715.00
1928.88,1726.00
1930.48,1695.00
1932.07,1694.00
1933.67,1748.00
1935.26,1694.00
1936.86,1641.00
1938.45,1695.00
1940.04,1715.00
1941.63,1695.00
1943.22,1673.00
1944.80,1652.00
1946.39,1610.00
1947.98,1536.00
1949.56,1525.00
1951.14,1546.00
1952.73,1578.00
1954.31,1630.00
1955.89,1631.00
1957.47,1599.00
1959.05,1599.00
1960.62,1589.00
1962.20,1630.00
1963.77,1663.00
1965.35,1556.00
1966.92,1546.00
1968.49,1588.00
1970.06,1556.00
1971.63,1557.00
1973.20,1557.00
1974.77,1546.00
1976.34,1525.00
1977.90,1546.00
1979.47,1514.00
1981.03,1546.00
1982.59,1556.00
1984.15,1557.00
1985.71,1589.00
1987.27,1568.00
1988.83,1599.00
1990.39,1609.00
1991.94,1556.00
1993.50,1535.00
1995.05,1525.00
1996.61,1524.00
1998.16,1525.00
1999.71,1578.00
2001.26,1515.00
2002.81,1546.00
2004.36,1524.00
2005.91,1483.00
2007.45,1441.00
2009.00,1462.00
2010.54,1471.00
2012.08,1504.00
2013.62,1482.00
2015.17,1504.00
2016.71,1430.00
2018.24,1472.00
2019.78,1461.00
2021.32,1451.00
2022.85,1493.00
2024.39,1450.00
2025.92,1451.00
2027.46,1504.00
2028.99,1493.00
2030.52,1441.00
2032.05,1440.00
2033.58,1451.00
2035.10,1461.00
2036.63,1398.00
2038.16,1441.00
2039.68,1398.00
2041.21,1335.00
2042.73,1377.00
2044.25,1430.00
2045.77,1430.00
2047.29,1398.00
2048.81,1355.00
2050.33,1302.00
2051.84,1376.00
2053.36,1440.00
2054.87,1441.00
2056.39,1334.00
2057.90,1281.00
2059.41,1281.00
2060.92,1282.00
2062.43,1323.00
2063.94,1334.00
2065.45,1387.00
2066.95,1376.00
2068.46,1356.00
2069.96,1356.00
2071.47,1313.00
2072.97,1324.00
2074.47,1334.00
2075.97,1292.00
2077.47,1335.00
2078.97,1313.00
2080.47,1260.00
2081.96,1271.00
2083.46,1313.00
2084.95,1271.00
2086.45,1292.00
2087.94,1313.00
2089.43,1260.00
2090.92,1250.00
2092.41,1228.00
2093.90,1249.00
2095.39,1218.00
2096.88,1207.00
2098.36,1271.00
2099.85,1165.00
2101.33,1165.00
2102.81,1196.00
2104.30,1239.00
2105.78,1271.00
2107.26,1207.00
2108.74,1165.00
2110.21,1186.00
2111.69,1208.00
2113.17,1196.00
2114.64,1175.00
2116.12,1144.00
2117.59,1091.00
2119.06,1143.00
2120.53,1175.00
2122.00,1122.00
2123.47,1133.00
2124.94,1122.00
2126.41,1144.00
2127.87,1144.00
2129.34,1091.00
2130.80,1080.00
2132.27,1090.00
2133.73,1112.00
2135.19,1112.00
2136.65,1133.00
2138.11,1123.00
2139.57,1123.00
2141.03,1070.00
2142.48,1080.00
2143.94,1070.00
2145.39,1069.00
2146.85,1133.00
2148.30,1123.00
2149.75,1080.00
2151.20,1080.00
2152.65,1017.00
2154.10,1048.00
2155.55,1112.00
2157.00,1037.00
2158.44,1016.00
2159.89,1070.00
2161.33,1048.00
2162.78,1038.00
2164.22,1006.00
2165.66,1017.00
2167.10,1070.00
2168.54,1058.00
2169.98,1059.00
2171.42,1027.00
2172.85,1038.00
2174.29,1059.00
2175.72,1070.00
2177.16,1017.00
2178.59,1070.00
2180.02,1101.00
2181.45,1091.00
2182.88,1006.00
2184.31,1017.00
2185.74,1069.00
2187.17,1080.00
2188.59,1069.00
2190.02,1048.00
2191.44,1101.00
2192.87,1080.00
2194.29,1017.00
2195.71,996.00
2197.13,1016.00
2198.55,1048.00
2199.97,1059.00
2201.39,996.00
2202.81,964.00
2204.22,996.00
2205.64,995.00
2207.05,974.00
2208.46,984.00
2209.88,1017.00
2211.29,963.00
2212.70,931.00
2214.11,942.00
2215.52,995.00
2216.92,1017.00
2218.33,975.00
2219.74,931.00
2221.14,921.00
2222.54,964.00
2223.95,963.00
2225.35,953.00
2226.75,953.00
2228.15,932.00
2229.55,932.00
2230.95,942.00
2232.35,922.00
2233.74,932.00
2235.14,911.00
2236.53,932.00
2237.93,953.00
2239.32,921.00
2240.71,858.00
2242.10,858.00
2243.49,931.00
2244.88,931.00
2246.27,953.00
2247.66,921.00
2249.04,900.00
2250.43,911.00
2251.81,900.00
2253.20,879.00
2254.58,868.00
2255.96,868.00
2257.34,847.00
2258.72,848.00
2260.10,879.00
2261.48,879.00
2262.86,836.00
2264.23,815.00
2265.61,826.00
2266.98,826.00
2268.36,805.00
2269.73,826.00
2271.10,836.00
2272.47,794.00
2273.84,794.00
2275.21,826.00
2276.58,805.00
2277.95,794.00
2279.31,847.00
2280.68,826.00
2282.05,816.00
2283.41,826.00
2284.77,795.00
2286.13,784.00
2287.50,741.00
2288.86,784.00
2290.22,836.00
2291.57,784.00
2292.93,752.00
2294.29,784.00
2295.64,805.00
2297.00,784.00
2298.35,773.00
2299.71,762.00
2301.06,741.00
2302.41,773.00
2303.76,773.00
2305.11,773.00
2306.46,805.00
2307.81,763.00
2309.15,709.00
2310.50,741.00
2311.84,751.00
2313.19,720.00
2314.53,773.00
2315.87,794.00
2317.22,795.00
2318.56,773.00
2319.90,688.00
2321.24,731.00
2322.57,773.00
2323.91,783.00
2325.25,784.00
2326.58,741.00
2327.92,709.00
2329.25,731.00
2330.58,731.00
2331.91,710.00
2333.25,805.00
2334.58,784.00
2335.90,699.00
2337.23,667.00
2338.56,678.00
2339.89,730.00
2341.21,720.00
2342.54,646.00
2343.86,656.00
2345.19,688.00
2346.51,720.00
2347.83,689.00
2349.15,709.00
2350.47,730.00
2351.79,699.00
2353.11,720.00
2354.42,730.00
2355.74,678.00
2357.06,699.00
2358.37,688.00
2359.68,677.00
2361.00,688.00
2362.31,678.00
2363.62,635.00
2364.93,657.00
2366.24,709.00
2367.55,752.00
2368.86,731.00
2370.16,624.00
2371.47,615.00
2372.77,593.00
2374.08,614.00
2375.38,667.00
2376.68,689.00
2377.98,699.00
2379.29,657.00
2380.59,657.00
2381.88,635.00
2383.18,636.00
2384.48,625.00
2385.78,657.00
2387.07,657.00
2388.37,656.00
2389.66,667.00
2390.95,583.00
2392.25,646.00
2393.54,646.00
2394.83,689.00
2396.12,710.00
2397.41,656.00
2398.70,646.00
2399.98,646.00
2401.27,635.00
2402.55,593.00
2403.84,593.00
2405.12,604.00
2406.41,582.00
2407.69,583.00
2408.97,615.00
2410.25,593.00
2411.53,593.00
2412.81,678.00
2414.09,667.00
2415.36,646.00
2416.64,624.00
2417.91,636.00
2419.19,625.00
2420.46,562.00
2421.74,614.00
2423.01,603.00
2424.28,561.00
2425.55,572.00
2426.82,572.00
2428.09,550.00
2429.36,583.00
2430.62,593.00
2431.89,572.00
2433.15,551.00
2434.42,593.00
2435.68,572.00
2436.94,593.00
2438.21,614.00
2439.47,603.00
2440.73,551.00
2441.99,551.00
2443.25,562.00
2444.51,551.00
2445.76,561.00
2447.02,562.00
2448.27,583.00
2449.53,583.00
2450.78,593.00
2452.03,540.00
2453.29,529.00
2454.54,529.00
2455.79,508.00
2457.04,498.00
2458.29,476.00
2459.54,466.00
2460.78,477.00
2462.03,519.00
2463.27,508.00
2464.52,508.00
2465.76,561.00
2467.01,529.00
2468.25,519.00
2469.49,540.00
2470.73,508.00
2471.97,487.00
2473.21,530.00
2474.45,540.00
2475.69,582.00
2476.92,518.00
2478.16,509.00
2479.39,498.00
2480.63,498.00
2481.86,572.00
2483.09,593.00
2484.32,508.00
2485.56,434.00
2486.79,508.00
2488.02,518.00
2489.24,508.00
2490.47,466.00
2491.70,434.00
2492.92,488.00
2494.15,519.00
2495.37,509.00
2496.60,498.00
2497.82,476.00
2499.04,519.00
2500.26,551.00
2501.48,519.00
2502.70,509.00
2503.92,497.00
2505.14,487.00
2506.36,456.00
2507.58,487.00
2508.79,476.00
2510.01,487.00
2511.22,445.00
2512.43,455.00
2513.64,445.00
2514.86,455.00
2516.07,466.00
2517.28,487.00
2518.49,487.00
2519.70,466.00
2520.90,456.00
2522.11,445.00
2523.32,477.00
2524.52,508.00
2525.73,466.00
2526.93,445.00
2528.13,445.00
2529.33,445.00
2530.54,445.00
2531.74,424.00
2532.94,455.00
2534.14,487.00
2535.33,434.00
2536.53,413.00
2537.73,445.00
2538.92,445.00
2540.12,455.00
2541.31,434.00
2542.51,423.00
2543.70,455.00
2544.89,477.00
2546.08,434.00
2547.27,455.00
2548.46,498.00
2549.65,455.00
2550.84,402.00
2552.03,444.00
2553.21,445.00
2554.40,423.00
2555.58,381.00
2556.77,444.00
2557.95,403.00
2559.13,413.00
2560.31,360.00
2561.50,338.00
2562.68,381.00
2563.85,424.00
2565.03,423.00
2566.21,424.00
2567.39,403.00
2568.56,402.00
2569.74,402.00
2570.91,370.00
2572.09,392.00
2573.26,371.00
2574.43,392.00
2575.61,413.00
2576.78,445.00
2577.95,382.00
2579.12,381.00
2580.29,391.00
2581.45,424.00
2582.62,445.00
2583.79,424.00
2584.95,371.00
2586.12,424.00
2587.28,445.00
2588.44,402.00
2589.61,382.00
2590.77,338.00
2591.93,339.00
2593.09,350.00
2594.25,349.00
2595.41,381.00
2596.56,370.00
2597.72,370.00
2598.88,339.00
2600.03,391.00
2601.19,392.00
2602.34,339.00
2603.50,382.00
2604.65,402.00
2605.80,360.00
2606.95,317.00
2608.10,286.00
2609.25,318.00
2610.40,318.00
2611.55,339.00
2612.70,371.00
2613.84,339.00
2614.99,297.00
2616.13,338.00
2617.28,360.00
2618.42,371.00
2619.56,286.00
2620.71,297.00
2621.85,360.00
2622.99,382.00
2624.13,360.00
2625.27,360.00
2626.40,392.00
2627.54,371.00
2628.68,296.00
2629.81,297.00
2630.95,307.00
2632.08,275.00
2633.22,297.00
2634.35,349.00
2635.48,339.00
2636.61,328.00
2637.74,307.00
2638.87,307.00
2640.00,339.00
2641.13,381.00
2642.26,339.00
2643.39,276.00
2644.51,254.00
2645.64,275.00
2646.76,317.00
2647.89,371.00
2649.01,339.00
2650.13,318.00
2651.25,339.00
2652.38,339.00
2653.50,349.00
2654.62,329.00
2655.73,318.00
2656.85,265.00
2657.97,275.00
2659.09,265.00
2660.20,264.00
2661.32,297.00
2662.43,296.00
2663.55,275.00
2664.66,307.00
2665.77,318.00
2666.88,307.00
2667.99,339.00
2669.10,307.00
2670.21,254.00
2671.32,254.00
2672.43,296.00
2673.54,297.00
2674.64,297.00
2675.75,254.00
2676.85,318.00
2677.96,339.00
2679.06,286.00
2680.16,297.00
2681.26,243.00
2682.37,254.00
2683.47,275.00
2684.57,244.00
2685.66,254.00
2686.76,212.00
2687.86,233.00
2688.96,265.00
2690.05,275.00
2691.15,243.00
2692.24,286.00
2693.34,318.00
2694.43,244.00
2695.52,233.00
2696.62,265.00
2697.71,286.00
2698.80,265.00
2699.89,276.00
2700.98,264.00
2702.06,275.00
2703.15,318.00
2704.24,286.00
2705.32,243.00
2706.41,296.00
2707.49,275.00
2708.58,264.00
2709.66,244.00
2710.74,211.00
2711.83,233.00
2712.91,233.00
2713.99,255.00
2715.07,223.00
2716.15,264.00
2717.22,254.00
2718.30,211.00
2719.38,264.00
2720.45,265.00
2721.53,285.00
2722.60,254.00
2723.68,191.00
2724.75,190.00
2725.82,254.00
2726.89,244.00
2727.97,191.00
2729.04,222.00
2730.11,275.00
2731.17,276.00
2732.24,233.00
2733.31,180.00
2734.38,148.00
2735.44,212.00
2736.51,212.00
2737.57,180.00
2738.64,276.00
2739.70,233.00
2740.76,212.00
2741.82,233.00
2742.89,307.00
2743.95,317.00
2745.01,275.00
2746.07,264.00
2747.12,233.00
2748.18,243.00
2749.24,254.00
2750.29,264.00
2751.35,233.00
2752.40,233.00
2753.46,233.00
2754.51,233.00
2755.57,233.00
2756.62,222.00
2757.67,223.00
2758.72,222.00
2759.77,212.00
2760.82,201.00
2761.87,243.00
2762.91,201.00
2763.96,190.00
2765.01,222.00
2766.05,222.00
2767.10,254.00
2768.14,202.00
2769.19,159.00
2770.23,169.00
2771.27,212.00
2772.31,255.00
2773.35,222.00
2774.40,223.00
2775.43,211.00
2776.47,190.00
2777.51,233.00
2778.55,170.00
2779.59,148.00
2780.62,222.00
2781.66,233.00
2782.69,222.00
2783.73,191.00
2784.76,212.00
2785.79,211.00
2786.82,211.00
2787.85,180.00
2788.89,180.00
2789.92,222.00
2790.94,233.00
2791.97,254.00
2793.00,233.00
2794.03,222.00
2795.05,180.00
2796.08,201.00
2797.11,254.00
2798.13,233.00
2799.15,201.00
2800.18,159.00
2801.20,180.00
2802.22,191.00
2803.24,201.00
2804.26,201.00
2805.28,159.00
2806.30,233.00
2807.32,254.00
2808.34,233.00
2809.35,254.00
2810.37,233.00
2811.39,180.00
2812.40,191.00
2813.41,202.00
2814.43,191.00
2815.44,191.00
2816.45,202.00
2817.46,170.00
2818.48,190.00
2819.49,180.00
2820.49,180.00
2821.50,159.00
2822.51,169.00
2823.52,169.00
2824.53,159.00
2825.53,180.00
2826.54,170.00
2827.54,170.00
2828.55,191.00
2829.55,180.00
2830.55,190.00
2831.55,170.00
2832.56,169.00
2833.56,170.00
2834.56,180.00
2835.56,169.00
2836.56,191.00
2837.55,170.00
2838.55,169.00
2839.55,170.00
2840.54,149.00
2841.54,149.00
2842.53,170.00
2843.53,170.00
2844.52,180.00
2845.51,127.00
2846.51,149.00
2847.50,148.00
2848.49,127.00
2849.48,95.00
2850.47,148.00
2851.46,159.00
2852.45,149.00
2853.43,180.00
2854.42,212.00
2855.41,180.00
2856.39,159.00
2857.38,170.00
2858.36,191.00
2859.34,191.00
2860.33,169.00
2861.31,159.00
2862.29,159.00
2863.27,159.00
2864.25,170.00
2865.23,212.00
2866.21,201.00
2867.19,159.00
2868.17,170.00
2869.14,128.00
2870.12,128.00
2871.09,169.00
2872.07,159.00
2873.04,170.00
2874.02,169.00
2874.99,180.00
2875.96,170.00
2876.93,190.00
2877.91,180.00
2878.88,159.00
2879.85,137.00
2880.82,127.00
2881.78,138.00
2882.75,127.00
2883.72,137.00
2884.69,106.00
2885.65,106.00
2886.62,127.00
2887.58,148.00
2888.55,190.00
2889.51,180.00
2890.47,169.00
2891.43,116.00
2892.39,127.00
2893.36,106.00
2894.31,95.00
2895.27,158.00
2896.23,148.00
2897.19,137.00
2898.15,170.00
2899.11,159.00
2900.06,190.00
2901.02,148.00
2901.97,127.00
2902.93,169.00
2903.88,170.00
2904.83,180.00
2905.79,180.00
2906.74,127.00
2907.69,106.00
2908.64,95.00
2909.59,95.00
2910.54,74.00
2911.49,137.00
2912.43,180.00
2913.38,116.00
2914.33,127.00
2915.27,148.00
2916.22,169.00
2917.16,137.00
2918.11,137.00
2919.05,106.00
2919.99,149.00
2920.94,159.00
2921.88,106.00
2922.82,127.00
2923.76,148.00
2924.70,127.00
2925.64,159.00
2926.58,191.00
2927.51,159.00
2928.45,127.00
2929.39,127.00
2930.32,127.00
2931.26,138.00
2932.19,117.00
2933.13,169.00
2934.06,191.00
2934.99,169.00
2935.92,84.00
2936.86,95.00
2937.79,169.00
2938.72,148.00
2939.65,116.00
2940.57,127.00
2941.50,127.00
2942.43,128.00
2943.36,127.00
2944.28,106.00
2945.21,116.00
2946.13,127.00
2947.06,95.00
2947.98,106.00
2948.91,127.00
2949.83,127.00
2950.75,137.00
2951.67,95.00
2952.59,85.00
2953.51,127.00
2954.43,159.00
2955.35,127.00
2956.27,106.00
2957.19,138.00
2958.10,116.00
2959.02,116.00
2959.94,127.00
2960.85,95.00
2961.77,63.00
2962.68,85.00
2963.59,105.00
2964.51,127.00
2965.42,106.00
2966.33,106.00
2967.24,137.00
2968.15,148.00
2969.06,169.00
2969.97,127.00
2970.88,63.00
2971.78,85.00
2972.69,116.00
2973.60,95.00
2974.50,116.00
2975.41,127.00
2976.31,85.00
2977.22,63.00
2978.12,85.00
2979.02,95.00
2979.93,96.00
2980.83,169.00
2981.73,148.00
2982.63,84.00
2983.53,95.00
2984.43,127.00
2985.33,106.00
2986.22,85.00
2987.12,137.00
2988.02,127.00
2988.91,85.00
2989.81,127.00
2990.70,64.00
2991.60,127.00
2992.49,116.00
2993.38,127.00
2994.28,127.00
2995.17,117.00
2996.06,116.00
2996.95,96.00
2997.84,53.00
2998.73,74.00
2999.62,105.00
3000.51,106.00
3001.40,64.00
3002.28,53.00
3003.17,32.00
3004.05,42.00
3004.94,84.00
3005.82,85.00
3006.71,84.00
3007.59,148.00
3008.47,137.00
3009.36,96.00
3010.24,137.00
3011.12,117.00
3012.00,63.00
3012.88,85.00
3013.76,85.00
3014.64,32.00
3015.51,43.00
3016.39,95.00
3017.27,106.00
3018.14,84.00
3019.02,85.00
3019.89,127.00
3020.77,106.00
3021.64,85.00
3022.52,106.00
3023.39,127.00
3024.26,74.00
3025.13,42.00
3026.00,31.00
3026.87,63.00
3027.74,117.00
3028.61,117.00
3029.48,84.00
3030.35,64.00
3031.21,63.00
3032.08,74.00
3032.95,74.00
3033.81,63.00
3034.68,138.00
3035.54,148.00
3036.40,137.00
3037.27,85.00
3038.13,96.00
3038.99,84.00
3039.85,106.00
3040.71,106.00
3041.57,74.00
3042.43,96.00
3043.29,74.00
3044.15,53.00
3045.01,64.00
3045.86,74.00
3046.72,85.00
3047.58,127.00
3048.43,106.00
3049.29,95.00
3050.14,96.00
3050.99,75.00
3051.85,64.00
3052.70,64.00
3053.55,53.00
3054.40,32.00
3055.25,42.00
3056.10,64.00
3056.95,63.00
3057.80,53.00
3058.65,11.00
3059.50,53.00
3060.34,85.00
3061.19,84.00
3062.04,106.00
3062.88,74.00
3063.73,22.00
3064.57,53.00
3065.42,95.00
3066.26,74.00
3067.10,63.00
3067.94,84.00
3068.78,106.00
3069.63,117.00
3070.47,84.00
3071.31,63.00
3072.14,127.00
3072.98,32.00
3073.82,11.00
3074.66,43.00
3075.49,42.00
3076.33,21.00
3077.17,0.00
3078.00,53.00
3078.83,43.00
3079.67,75.00
3080.50,85.00
3081.33,85.00
3082.17,96.00
3083.00,85.00
3083.83,52.00
3084.66,32.00
3085.49,43.00
3086.32,84.00
3087.15,74.00
3087.97,53.00
3088.80,85.00
3089.63,148.00
3090.46,148.00
3091.28,63.00
3092.11,31.00
3092.93,43.00
3093.75,43.00
3094.58,84.00
3095.40,53.00
3096.22,10.00
3097.05,21.00
3097.87,31.00
3098.69,11.00
3099.51,53.00
3100.33,106.00
3101.15,95.00
3101.96,43.00
3102.78,74.00
3103.60,64.00
3104.42,32.00
3105.23,11.00
3106.05,63.00
3106.86,42.00
3107.68,32.00
3108.49,0.00
3109.30,31.00
3110.12,64.00
3110.93,21.00
3111.74,10.00
3112.55,11.00
3113.36,32.00
3114.17,10.00
3114.98,52.00
3115.79,22.00
3116.60,0.00
3117.40,0.00
3118.21,21.00
3119.02,10.00
3119.82,43.00
3120.63,53.00
3121.43,11.00
3122.24,-11.00
3123.04,53.00
3123.84,96.00
3124.65,42.00
3125.45,63.00
3126.25,95.00
3127.05,64.00
3127.85,64.00
3128.65,-10.00
3129.45,-32.00
3130.25,10.00
3131.05,64.00
3131.84,95.00
3132.64,106.00
3133.44,85.00
3134.23,53.00
3135.03,42.00
3135.82,85.00
3136.62,106.00
3137.41,159.00
3138.20,74.00
3139.00,63.00
3139.79,32.00
3140.58,21.00
3141.37,64.00
3142.16,74.00
3142.95,43.00
3143.74,21.00
3144.53,42.00
3145.32,0.00
3146.10,63.00
3146.89,53.00
3147.68,10.00
3148.46,42.00
3149.25,42.00
3150.03,21.00
3150.82,32.00
3151.60,42.00
3152.38,32.00
3153.17,74.00
3153.95,53.00
3154.73,64.00
3155.51,106.00
3156.29,106.00
3157.07,75.00
3157.85,53.00
3158.63,0.00
3159.41,21.00
3160.18,127.00
3160.96,84.00
3161.74,43.00
3162.51,53.00
3163.29,32.00
3164.06,0.00
3164.84,0.00
3165.61,11.00
3166.38,42.00
3167.16,74.00
3167.93,64.00
3168.70,52.00
3169.47,53.00
3170.24,21.00
3171.01,0.00
3171.78,21.00
3172.55,53.00
3173.32,74.00
3174.09,74.00
3174.85,-21.00
3175.62,-21.00
3176.39,0.00
3177.15,10.00
3177.92,32.00
3178.68,42.00
3179.45,43.00
3180.21,53.00
3180.97,42.00
3181.73,31.00
3182.50,32.00
3183.26,53.00
3184.02,0.00
3184.78,0.00
3185.54,53.00
3186.30,84.00
3187.05,43.00
3187.81,85.00
3188.57,74.00
3189.33,42.00
3190.08,42.00
3190.84,85.00
3191.59,74.00
3192.35,21.00
3193.10,21.00
3193.86,42.00
3194.61,42.00
3195.36,42.00
3196.12,22.00
3196.87,0.00
3197.62,-10.00
3198.37,-42.00
3199.12,-43.00
3199.87,0.00
3200.62,53.00
3201.36,74.00
3202.11,75.00
3202.86,21.00
3203.61,-21.00
3204.35,31.00
3205.10,32.00
3205.84,74.00
3206.59,63.00
3207.33,0.00
3208.08,21.00
3208.82,31.00
3209.56,43.00
3210.30,-10.00
3211.05,-10.00
3211.79,53.00
3212.53,85.00
3213.27,64.00
3214.01,42.00
3214.75,21.00
3215.48,21.00
3216.22,53.00
3216.96,0.00
3217.69,-10.00
3218.43,21.00
3219.17,11.00
3219.90,21.00
3220.64,32.00
3221.37,-43.00
3222.10,-21.00
3222.84,31.00
3223.57,64.00
3224.30,0.00
3225.03,21.00
3225.76,63.00
3226.49,85.00
3227.22,64.00
3227.95,32.00
3228.68,21.00
3229.41,0.00
3230.14,-10.00
3230.87,10.00
3231.59,74.00
3232.32,64.00
3233.04,32.00
3233.77,10.00
3234.49,0.00
3235.22,32.00
3235.94,74.00
3236.66,74.00
3237.39,95.00
3238.11,74.00
3238.83,21.00
3239.55,-11.00
3240.27,21.00
3240.99,21.00
3241.71,42.00
3242.43,43.00
3243.15,42.00
3243.87,0.00
3244.58,22.00
3245.30,53.00
3246.02,74.00
3246.73,21.00
3247.45,32.00
3248.16,32.00
3248.88,32.00
3249.59,0.00
3250.30,42.00
3251.01,21.00
3251.73,21.00
3252.44,42.00
3253.15,64.00
3253.86,42.00
3254.57,63.00
3255.28,74.00
3255.99,43.00
3256.70,43.00
3257.41,53.00
3258.11,42.00
3258.82,53.00
3259.53,21.00
3260.23,106.00
3260.94,63.00
3261.64,32.00
3262.35,42.00
3263.05,31.00
3263.76,32.00
3264.46,21.00
3265.16,64.00
3265.86,21.00
3266.56,0.00
3267.26,43.00
3267.97,32.00
3268.67,74.00
3269.36,31.00
3270.06,21.00
3270.76,-10.00
3271.46,-21.00
3272.16,-53.00
3272.85,0.00
