RamanShift,Intensity
180.91,288.00
183.74,233.00
186.56,360.00
189.39,476.00
192.21,657.00
195.03,953.00
197.84,1377.00
200.66,1810.00
203.47,2436.00
206.28,3113.00
209.09,3759.00
211.89,4172.00
214.70,4490.00
217.50,4850.00
220.30,5168.00
223.10,5369.00
225.89,5411.00
228.69,5390.00
231.48,5475.00
234.27,5655.00
237.05,5718.00
239.84,5644.00
242.62,5507.00
245.40,5432.00
248.18,5421.00
250.96,5433.00
253.73,5549.00
256.51,5358.00
259.28,5295.00
262.05,5210.00
264.81,5126.00
267.58,5156.00
270.34,5189.00
273.10,5072.00
275.86,5146.00
278.61,5114.00
281.37,5072.00
284.12,5051.00
286.87,5157.00
289.62,5104.00
292.36,4977.00
295.11,4987.00
297.85,5051.00
300.59,5041.00
303.33,4945.00
306.06,4946.00
308.80,5146.00
311.53,5220.00
314.26,5136.00
316.99,5094.00
319.71,5051.00
322.44,4977.00
325.16,5083.00
327.88,5029.00
330.59,5020.00
333.31,5030.00
336.02,4923.00
338.73,5041.00
341.44,5051.00
344.15,4892.00
346.86,4882.00
349.56,4903.00
352.26,4924.00
354.96,4998.00
357.66,4998.00
360.35,4987.00
363.05,4913.00
365.74,5030.00
368.43,5072.00
371.12,5073.00
373.80,4977.00
376.48,4882.00
379.17,5136.00
381.85,5231.00
384.52,5125.00
387.20,5093.00
389.87,5168.00
392.54,5231.00
395.21,5242.00
397.88,5231.00
400.55,5220.00
403.21,5157.00
405.87,5157.00
408.53,5072.00
411.19,5062.00
413.84,5358.00
416.50,5358.00
419.15,5189.00
421.80,5157.00
424.45,5179.00
427.10,5220.00
429.74,5221.00
432.38,5252.00
435.02,5157.00
437.66,5093.00
440.30,5083.00
442.93,5136.00
445.56,5157.00
448.19,5136.00
450.82,5242.00
453.45,5220.00
456.07,5104.00
458.70,5157.00
461.32,5210.00
463.94,5220.00
466.55,5210.00
469.17,5263.00
471.78,5220.00
474.39,5156.00
477.00,5126.00
479.61,5178.00
482.22,5242.00
484.82,5210.00
487.42,5051.00
490.02,5083.00
492.62,5157.00
495.21,5199.00
497.81,5200.00
500.40,5125.00
502.99,5157.00
505.58,5147.00
508.17,5147.00
510.75,5104.00
513.33,5051.00
515.91,5019.00
518.49,4998.00
521.07,5008.00
523.65,5083.00
526.22,5072.00
528.79,4945.00
531.36,4913.00
533.93,4988.00
536.49,4966.00
539.06,4935.00
541.62,4945.00
544.18,4966.00
546.74,5104.00
549.30,5115.00
551.85,5072.00
554.40,4924.00
556.95,4840.00
559.50,4860.00
562.05,4893.00
564.59,4840.00
567.14,4861.00
569.68,4860.00
572.22,4892.00
574.76,4914.00
577.29,4924.00
579.83,4860.00
582.36,4797.00
584.89,4776.00
587.42,4733.00
589.95,4701.00
592.47,4659.00
594.99,4670.00
597.52,4755.00
600.04,4670.00
602.55,4585.00
605.07,4638.00
607.58,4596.00
610.09,4628.00
612.60,4564.00
615.11,4574.00
617.62,4670.00
620.12,4659.00
622.63,4606.00
625.13,4564.00
627.63,4511.00
630.13,4490.00
632.62,4574.00
635.12,4586.00
637.61,4426.00
640.10,4500.00
642.59,4522.00
645.07,4468.00
647.56,4353.00
650.04,4341.00
652.52,4352.00
655.00,4310.00
657.48,4395.00
659.96,4415.00
662.43,4363.00
664.90,4363.00
667.37,4406.00
669.84,4405.00
672.31,4373.00
674.78,4363.00
677.24,4543.00
679.70,4479.00
682.16,4352.00
684.62,4320.00
687.08,4310.00
689.53,4373.00
691.98,4299.00
694.43,4225.00
696.88,4267.00
699.33,4247.00
701.78,4246.00
704.22,4373.00
706.66,4299.00
709.10,4257.00
711.54,4235.00
713.98,4140.00
716.42,4151.00
718.85,4278.00
721.28,4384.00
723.71,4321.00
726.14,4395.00
728.57,4500.00
730.99,4427.00
733.41,4363.00
735.83,4331.00
738.25,4309.00
740.67,4288.00
743.09,4172.00
745.50,4066.00
747.91,3939.00
750.33,3876.00
752.73,3866.00
755.14,3865.00
757.55,3875.00
759.95,3876.00
762.35,3833.00
764.75,3918.00
767.15,3897.00
769.55,3854.00
771.95,3886.00
774.34,3971.00
776.73,4014.00
779.12,3833.00
781.51,3908.00
783.90,3939.00
786.28,3854.00
788.67,3897.00
791.05,3970.00
793.43,3876.00
795.80,3791.00
798.18,3823.00
800.56,3748.00
802.93,3696.00
805.30,3706.00
807.67,3749.00
810.04,3770.00
812.40,3791.00
814.77,3780.00
817.13,3780.00
819.49,3759.00
821.85,3674.00
824.21,3653.00
826.57,3727.00
828.92,3727.00
831.27,3621.00
833.63,3536.00
835.98,3569.00
838.32,3505.00
840.67,3442.00
843.01,3622.00
845.36,3611.00
847.70,3547.00
850.04,3611.00
852.37,3589.00
854.71,3494.00
857.05,3410.00
859.38,3463.00
861.71,3441.00
864.04,3335.00
866.37,3378.00
868.69,3463.00
871.02,3420.00
873.34,3410.00
875.66,3409.00
877.98,3399.00
880.30,3347.00
882.62,3399.00
884.93,3336.00
887.24,3346.00
889.55,3420.00
891.86,3282.00
894.17,3251.00
896.48,3304.00
898.78,3357.00
901.09,3357.00
903.39,3272.00
905.69,3230.00
907.99,3230.00
910.28,3272.00
912.58,3273.00
914.87,3304.00
917.16,3241.00
919.45,3229.00
921.74,3293.00
924.03,3378.00
926.31,3272.00
928.60,3230.00
930.88,3187.00
933.16,3145.00
935.44,3198.00
937.72,3240.00
939.99,3177.00
942.26,3230.00
944.54,3250.00
946.81,3188.00
949.08,3251.00
951.34,3209.00
953.61,3124.00
955.87,3198.00
958.14,3262.00
960.40,3166.00
962.66,3145.00
964.92,3145.00
967.17,3156.00
969.43,3081.00
971.68,2965.00
973.93,3018.00
976.18,3049.00
978.43,2996.00
980.68,3060.00
982.92,2987.00
985.17,2976.00
987.41,2986.00
989.65,2975.00
991.89,2923.00
994.12,2923.00
996.36,2975.00
998.59,2934.00
1000.83,2880.00
1003.06,2870.00
1005.29,2869.00
1007.51,2912.00
1009.74,2934.00
1011.97,2933.00
1014.19,2987.00
1016.41,2954.00
1018.63,2891.00
1020.85,2880.00
1023.07,2880.00
1025.28,2816.00
1027.49,2806.00
1029.71,2848.00
1031.92,2869.00
1034.13,2944.00
1036.33,2870.00
1038.54,2827.00
1040.74,2891.00
1042.95,2795.00
1045.15,2753.00
1047.35,2785.00
1049.55,2784.00
1051.74,2828.00
1053.94,2721.00
1056.13,2796.00
1058.32,2806.00
1060.51,2721.00
1062.70,2710.00
1064.89,2637.00
1067.08,2647.00
1069.26,2721.00
1071.44,2700.00
1073.63,2711.00
1075.81,2796.00
1077.98,2795.00
1080.16,2657.00
1082.34,2594.00
1084.51,2679.00
1086.68,2690.00
1088.85,2669.00
1091.02,2700.00
1093.19,2700.00
1095.35,2700.00
1097.52,2658.00
1099.68,2668.00
1101.84,2679.00
1104.00,2594.00
1106.16,2584.00
1108.32,2594.00
1110.48,2552.00
1112.63,2531.00
1114.78,2574.00
1116.93,2636.00
1119.08,2605.00
1121.23,2467.00
1123.38,2478.00
1125.52,2531.00
1127.67,2531.00
1129.81,2489.00
1131.95,2488.00
1134.09,2616.00
1136.22,2531.00
1138.36,2404.00
1140.50,2362.00
1142.63,2424.00
1144.76,2414.00
1146.89,2372.00
1149.02,2446.00
1151.15,2531.00
1153.27,2552.00
1155.40,2510.00
1157.52,2446.00
1159.64,2372.00
1161.76,2383.00
1163.88,2404.00
1165.99,2383.00
1168.11,2372.00
1170.22,2435.00
1172.34,2404.00
1174.45,2319.00
1176.56,2288.00
1178.66,2277.00
1180.77,2340.00
1182.88,2351.00
1184.98,2383.00
1187.08,2351.00
1189.18,2383.00
1191.28,2372.00
1193.38,2340.00
1195.47,2298.00
1197.57,2287.00
1199.66,2235.00
1201.75,2224.00
1203.85,2287.00
1205.93,2319.00
1208.02,2245.00
1210.11,2192.00
1212.19,2181.00
1214.28,2256.00
1216.36,2351.00
1218.44,2383.00
1220.52,2298.00
1222.59,2266.00
1224.67,2330.00
1226.74,2288.00
1228.82,2297.00
1230.89,2319.00
1232.96,2319.00
1235.03,2255.00
1237.10,2108.00
1239.16,2097.00
1241.23,2171.00
1243.29,2160.00
1245.35,2234.00
1247.41,2255.00
1249.47,2330.00
1251.53,2298.00
1253.58,2266.00
1255.64,2213.00
1257.69,2139.00
1259.74,2086.00
1261.79,2107.00
1263.84,2171.00
1265.89,2107.00
1267.93,2044.00
1269.98,2044.00
1272.02,2043.00
1274.06,2065.00
1276.10,2096.00
1278.14,2034.00
1280.18,2023.00
1282.22,2097.00
1284.25,2075.00
1286.28,2064.00
1288.32,2033.00
1290.35,2044.00
1292.38,2128.00
1294.40,2086.00
1296.43,2117.00
1298.46,2150.00
1300.48,2054.00
1302.50,1980.00
1304.52,1991.00
1306.54,2001.00
1308.56,1991.00
1310.58,1981.00
1312.59,2096.00
1314.60,2128.00
1316.62,2128.00
1318.63,2139.00
1320.64,2139.00
1322.65,2161.00
1324.65,2181.00
1326.66,2150.00
1328.66,2203.00
1330.66,2276.00
1332.67,2213.00
1334.67,2128.00
1336.66,2086.00
1338.66,2128.00
1340.66,2129.00
1342.65,2097.00
1344.65,2129.00
1346.64,2139.00
1348.63,1948.00
1350.62,1896.00
1352.60,1980.00
1354.59,2023.00
1356.57,1980.00
1358.56,1895.00
1360.54,1959.00
1362.52,2012.00
1364.50,1906.00
1366.48,1895.00
1368.46,1970.00
1370.43,2044.00
1372.41,1991.00
1374.38,1928.00
1376.35,1885.00
1378.32,1822.00
1380.29,1853.00
1382.25,2023.00
1384.22,1970.00
1386.18,1906.00
1388.15,1917.00
1390.11,1927.00
1392.07,1948.00
1394.03,1927.00
1395.99,1875.00
1397.94,1864.00
1399.90,1906.00
1401.85,1906.00
1403.80,1779.00
1405.76,1790.00
1407.71,1779.00
1409.65,1821.00
1411.60,1853.00
1413.55,1842.00
1415.49,1821.00
1417.44,1789.00
1419.38,1800.00
1421.32,1885.00
1423.26,1853.00
1425.19,1821.00
1427.13,1832.00
1429.07,1768.00
1431.00,1716.00
1432.93,1673.00
1434.86,1737.00
1436.79,1758.00
1438.72,1769.00
1440.65,1779.00
1442.57,1726.00
1444.50,1716.00
1446.42,1683.00
1448.34,1737.00
1450.26,1832.00
1452.18,1790.00
1454.10,1683.00
1456.02,1631.00
1457.93,1631.00
1459.85,1683.00
1461.76,1768.00
1463.67,1758.00
1465.58,1737.00
1467.49,1662.00
1469.40,1652.00
1471.31,1652.00
1473.21,1684.00
1475.11,1726.00
1477.02,1673.00
1478.92,1641.00
1480.82,1684.00
1482.72,1705.00
1484.61,1694.00
1486.51,1631.00
1488.40,1663.00
1490.30,1631.00
1492.19,1599.00
1494.08,1556.00
1495.97,1630.00
1497.86,1610.00
1499.74,1568.00
1501.63,1577.00
1503.51,1557.00
1505.40,1525.00
1507.28,1482.00
1509.16,1504.00
1511.04,1535.00
1512.92,1546.00
1514.79,1589.00
1516.67,1557.00
1518.54,1567.00
1520.42,1610.00
1522.29,1610.00
1524.16,1599.00
1526.03,1525.00
1527.89,1567.00
1529.76,1546.00
1531.63,1535.00
1533.49,1546.00
1535.35,1620.00
1537.21,1631.00
1539.07,1557.00
1540.93,1524.00
1542.79,1525.00
1544.65,1409.00
1546.50,1376.00
1548.36,1472.00
1550.21,1482.00
1552.06,1567.00
1553.91,1515.00
1555.76,1462.00
1557.61,1482.00
1559.45,1472.00
1561.30,1525.00
1563.14,1461.00
1564.98,1366.00
1566.82,1461.00
1568.67,1525.00
1570.50,1503.00
1572.34,1440.00
1574.18,1451.00
1576.01,1440.00
1577.85,1482.00
1579.68,1504.00
1581.51,1482.00
1583.34,1429.00
1585.17,1398.00
1587.00,1461.00
1588.82,1535.00
1590.65,1450.00
1592.47,1419.00
1594.30,1419.00
1596.12,1408.00
1597.94,1419.00
1599.76,1440.00
1601.57,1472.00
1603.39,1461.00
1605.21,1430.00
1607.02,1377.00
1608.83,1355.00
1610.64,1376.00
1612.45,1398.00
1614.26,1356.00
1616.07,1345.00
1617.88,1313.00
1619.68,1356.00
1621.49,1419.00
1623.29,1377.00
1625.09,1313.00
1626.89,1355.00
1628.69,1356.00
1630.49,1323.00
1632.29,1344.00
1634.08,1366.00
1635.88,1451.00
1637.67,1398.00
1639.46,1281.00
1641.25,1302.00
1643.04,1292.00
1644.83,1281.00
1646.62,1260.00
1648.41,1302.00
1650.19,1292.00
1651.97,1292.00
1653.76,1229.00
1655.54,1197.00
1657.32,1239.00
1659.10,1250.00
1660.88,1324.00
1662.65,1292.00
1664.43,1281.00
1666.20,1291.00
1667.97,1271.00
1669.75,1281.00
1671.52,1292.00
1673.29,1250.00
1675.05,1239.00
1676.82,1270.00
1678.59,1314.00
1680.35,1271.00
1682.11,1291.00
1683.88,1207.00
1685.64,1207.00
1687.40,1175.00
1689.16,1250.00
1690.91,1229.00
1692.67,1186.00
1694.42,1186.00
1696.18,1197.00
1697.93,1250.00
1699.68,1207.00
1701.43,1185.00
1703.18,1228.00
1704.93,1186.00
1706.68,1229.00
1708.42,1239.00
1710.17,1186.00
1711.91,1143.00
1713.65,1207.00
1715.39,1260.00
1717.13,1207.00
1718.87,1144.00
1720.61,1122.00
1722.35,1122.00
1724.08,1123.00
1725.81,1080.00
1727.55,1165.00
1729.28,1164.00
1731.01,1069.00
1732.74,1080.00
1734.47,1090.00
1736.19,1101.00
1737.92,1112.00
1739.64,1122.00
1741.37,1038.00
1743.09,1059.00
1744.81,1133.00
1746.53,1123.00
1748.25,1112.00
1749.97,1059.00
1751.68,1027.00
1753.40,1090.00
1755.11,1059.00
1756.83,1037.00
1758.54,1080.00
1760.25,1112.00
1761.96,1091.00
1763.67,1006.00
1765.38,974.00
1767.08,985.00
1768.79,995.00
1770.49,1038.00
1772.19,985.00
1773.90,975.00
1775.60,974.00
1777.30,985.00
1778.99,996.00
1780.69,1017.00
1782.39,963.00
1784.08,953.00
1785.78,964.00
1787.47,985.00
1789.16,1027.00
1790.85,1016.00
1792.54,996.00
1794.23,974.00
1795.91,1016.00
1797.60,1028.00
1799.28,974.00
1800.97,1016.00
1802.65,974.00
1804.33,953.00
1806.01,1006.00
1807.69,996.00
1809.37,964.00
1811.05,953.00
1812.72,921.00
1814.40,868.00
1816.07,910.00
1817.74,921.00
1819.41,964.00
1821.08,963.00
1822.75,921.00
1824.42,932.00
1826.09,953.00
1827.75,921.00
1829.42,932.00
1831.08,1006.00
1832.74,984.00
1834.40,953.00
1836.06,900.00
1837.72,900.00
1839.38,953.00
1841.04,942.00
1842.69,932.00
1844.35,953.00
1846.00,911.00
1847.65,931.00
1849.30,932.00
1850.95,889.00
1852.60,847.00
1854.25,837.00
1855.90,858.00
1857.54,858.00
1859.19,848.00
1860.83,868.00
1862.47,921.00
1864.12,858.00
1865.76,868.00
1867.40,910.00
1869.03,922.00
1870.67,932.00
1872.31,921.00
1873.94,848.00
1875.57,837.00
1877.21,815.00
1878.84,847.00
1880.47,826.00
1882.10,826.00
1883.73,890.00
1885.35,794.00
1886.98,784.00
1888.61,751.00
1890.23,816.00
1891.85,879.00
1893.47,868.00
1895.09,879.00
1896.71,837.00
1898.33,826.00
1899.95,848.00
1901.57,868.00
1903.18,868.00
1904.80,847.00
1906.41,784.00
1908.02,783.00
1909.63,847.00
1911.24,816.00
1912.85,741.00
1914.46,826.00
1916.07,794.00
1917.67,783.00
1919.28,847.00
1920.88,826.00
1922.48,773.00
1924.08,783.00
1925.68,763.00
1927.28,773.00
1928.88,784.00
1930.48,762.00
1932.07,751.00
1933.67,752.00
1935.26,720.00
1936.86,752.00
1938.45,847.00
1940.04,836.00
1941.63,837.00
1943.22,858.00
1944.80,783.00
1946.39,720.00
1947.98,763.00
1949.56,763.00
1951.14,741.00
1952.73,752.00
1954.31,752.00
1955.89,752.00
1957.47,741.00
1959.05,731.00
1960.62,689.00
1962.20,721.00
1963.77,731.00
1965.35,710.00
1966.92,763.00
1968.49,752.00
1970.06,762.00
1971.63,805.00
1973.20,752.00
1974.77,773.00
1976.34,720.00
1977.90,688.00
1979.47,710.00
1981.03,677.00
1982.59,698.00
1984.15,752.00
1985.71,710.00
1987.27,625.00
1988.83,614.00
1990.39,741.00
1991.94,784.00
1993.50,689.00
1995.05,667.00
1996.61,730.00
1998.16,773.00
1999.71,751.00
2001.26,699.00
2002.81,720.00
2004.36,688.00
2005.91,709.00
2007.45,709.00
2009.00,709.00
2010.54,731.00
2012.08,699.00
2013.62,678.00
2015.17,678.00
2016.71,636.00
2018.24,646.00
2019.78,625.00
2021.32,699.00
2022.85,720.00
2024.39,678.00
2025.92,667.00
2027.46,689.00
2028.99,688.00
2030.52,678.00
2032.05,678.00
2033.58,720.00
2035.10,656.00
2036.63,678.00
2038.16,710.00
2039.68,699.00
2041.21,678.00
2042.73,646.00
2044.25,625.00
2045.77,657.00
2047.29,688.00
2048.81,667.00
2050.33,678.00
2051.84,699.00
2053.36,688.00
2054.87,625.00
2056.39,540.00
2057.90,614.00
2059.41,646.00
2060.92,645.00
2062.43,593.00
2063.94,561.00
2065.45,550.00
2066.95,572.00
2068.46,614.00
2069.96,656.00
2071.47,657.00
2072.97,688.00
2074.47,657.00
2075.97,615.00
2077.47,604.00
2078.97,614.00
2080.47,614.00
2081.96,572.00
2083.46,614.00
2084.95,646.00
2086.45,604.00
2087.94,593.00
2089.43,603.00
2090.92,624.00
2092.41,614.00
2093.90,603.00
2095.39,593.00
2096.88,583.00
2098.36,572.00
2099.85,562.00
2101.33,508.00
2102.81,540.00
2104.30,614.00
2105.78,582.00
2107.26,487.00
2108.74,498.00
2110.21,530.00
2111.69,562.00
2113.17,508.00
2114.64,529.00
2116.12,551.00
2117.59,593.00
2119.06,551.00
2120.53,561.00
2122.00,593.00
2123.47,582.00
2124.94,561.00
2126.41,593.00
2127.87,582.00
2129.34,550.00
2130.80,540.00
2132.27,572.00
2133.73,530.00
2135.19,530.00
2136.65,593.00
2138.11,572.00
2139.57,529.00
2141.03,529.00
2142.48,561.00
2143.94,519.00
2145.39,498.00
2146.85,519.00
2148.30,529.00
2149.75,509.00
2151.20,509.00
2152.65,487.00
2154.10,488.00
2155.55,508.00
2157.00,561.00
2158.44,529.00
2159.89,508.00
2161.33,508.00
2162.78,487.00
2164.22,487.00
2165.66,445.00
2167.10,518.00
2168.54,445.00
2169.98,487.00
2171.42,530.00
2172.85,551.00
2174.29,540.00
2175.72,466.00
2177.16,477.00
2178.59,519.00
2180.02,529.00
2181.45,540.00
2182.88,519.00
2184.31,477.00
2185.74,550.00
2187.17,529.00
2188.59,519.00
2190.02,487.00
2191.44,519.00
2192.87,487.00
2194.29,529.00
2195.71,530.00
2197.13,498.00
2198.55,456.00
2199.97,519.00
2201.39,519.00
2202.81,477.00
2204.22,455.00
2205.64,508.00
2207.05,550.00
2208.46,529.00
2209.88,509.00
2211.29,497.00
2212.70,498.00
2214.11,466.00
2215.52,434.00
2216.92,466.00
2218.33,444.00
2219.74,445.00
2221.14,445.00
2222.54,413.00
2223.95,434.00
2225.35,466.00
2226.75,465.00
2228.15,445.00
2229.55,413.00
2230.95,487.00
2232.35,476.00
2233.74,466.00
2235.14,434.00
2236.53,413.00
2237.93,434.00
2239.32,509.00
2240.71,445.00
2242.10,466.00
2243.49,488.00
2244.88,487.00
2246.27,455.00
2247.66,476.00
2249.04,424.00
2250.43,424.00
2251.81,423.00
2253.20,370.00
2254.58,402.00
2255.96,382.00
2257.34,370.00
2258.72,392.00
2260.10,381.00
2261.48,402.00
2262.86,424.00
2264.23,350.00
2265.61,423.00
2266.98,424.00
2268.36,392.00
2269.73,413.00
2271.10,392.00
2272.47,350.00
2273.84,392.00
2275.21,370.00
2276.58,370.00
2277.95,381.00
2279.31,413.00
2280.68,370.00
2282.05,382.00
2283.41,392.00
2284.77,361.00
2286.13,444.00
2287.50,413.00
2288.86,350.00
2290.22,381.00
2291.57,392.00
2292.93,435.00
2294.29,402.00
2295.64,371.00
2297.00,381.00
2298.35,371.00
2299.71,360.00
2301.06,381.00
2302.41,381.00
2303.76,370.00
2305.11,360.00
2306.46,392.00
2307.81,381.00
2309.15,339.00
2310.50,371.00
2311.84,424.00
2313.19,402.00
2314.53,339.00
2315.87,403.00
2317.22,445.00
2318.56,371.00
2319.90,339.00
2321.24,339.00
2322.57,350.00
2323.91,339.00
2325.25,381.00
2326.58,391.00
2327.92,424.00
2329.25,360.00
2330.58,296.00
2331.91,339.00
2333.25,360.00
2334.58,402.00
2335.90,360.00
2337.23,297.00
2338.56,349.00
2339.89,339.00
2341.21,317.00
2342.54,329.00
2343.86,275.00
2345.19,275.00
2346.51,317.00
2347.83,318.00
2349.15,318.00
2350.47,371.00
2351.79,371.00
2353.11,392.00
2354.42,381.00
2355.74,328.00
2357.06,275.00
2358.37,350.00
2359.68,360.00
2361.00,307.00
2362.31,307.00
2363.62,339.00
2364.93,275.00
2366.24,275.00
2367.55,307.00
2368.86,317.00
2370.16,317.00
2371.47,360.00
2372.77,328.00
2374.08,297.00
2375.38,308.00
2376.68,296.00
2377.98,296.00
2379.29,297.00
2380.59,222.00
2381.88,222.00
2383.18,264.00
2384.48,285.00
2385.78,329.00
2387.07,318.00
2388.37,296.00
2389.66,307.00
2390.95,275.00
2392.25,275.00
2393.54,297.00
2394.83,286.00
2396.12,286.00
2397.41,339.00
2398.70,338.00
2399.98,339.00
2401.27,318.00
2402.55,275.00
2403.84,286.00
2405.12,318.00
2406.41,275.00
2407.69,265.00
2408.97,296.00
2410.25,244.00
2411.53,254.00
2412.81,254.00
2414.09,265.00
2415.36,286.00
2416.64,317.00
2417.91,307.00
2419.19,328.00
2420.46,339.00
2421.74,275.00
2423.01,190.00
2424.28,275.00
2425.55,254.00
2426.82,222.00
2428.09,223.00
2429.36,254.00
2430.62,286.00
2431.89,254.00
2433.15,264.00
2434.42,243.00
2435.68,244.00
2436.94,212.00
2438.21,265.00
2439.47,286.00
2440.73,296.00
2441.99,265.00
2443.25,286.00
2444.51,275.00
2445.76,244.00
2447.02,255.00
2448.27,265.00
2449.53,276.00
2450.78,265.00
2452.03,244.00
2453.29,297.00
2454.54,265.00
2455.79,212.00
2457.04,212.00
2458.29,169.00
2459.54,211.00
2460.78,265.00
2462.03,254.00
2463.27,222.00
2464.52,223.00
2465.76,286.00
2467.01,318.00
2468.25,265.00
2469.49,243.00
2470.73,296.00
2471.97,308.00
2473.21,328.00
2474.45,275.00
2475.69,233.00
2476.92,254.00
2478.16,212.00
2479.39,222.00
2480.63,233.00
2481.86,233.00
2483.09,233.00
2484.32,265.00
2485.56,254.00
2486.79,233.00
2488.02,232.00
2489.24,265.00
2490.47,297.00
2491.70,233.00
2492.92,212.00
2494.15,244.00
2495.37,275.00
2496.60,254.00
2497.82,212.00
2499.04,243.00
2500.26,222.00
2501.48,254.00
2502.70,233.00
2503.92,201.00
2505.14,211.00
2506.36,212.00
2507.58,201.00
2508.79,201.00
2510.01,159.00
2511.22,191.00
2512.43,201.00
2513.64,254.00
2514.86,233.00
2516.07,255.00
2517.28,222.00
2518.49,222.00
2519.70,212.00
2520.90,275.00
2522.11,264.00
2523.32,254.00
2524.52,254.00
2525.73,254.00
2526.93,191.00
2528.13,190.00
2529.33,212.00
2530.54,211.00
2531.74,233.00
2532.94,222.00
2534.14,233.00
2535.33,232.00
2536.53,254.00
2537.73,222.00
2538.92,201.00
2540.12,191.00
2541.31,212.00
2542.51,223.00
2543.70,222.00
2544.89,191.00
2546.08,202.00
2547.27,201.00
2548.46,170.00
2549.65,212.00
2550.84,232.00
2552.03,212.00
2553.21,201.00
2554.40,191.00
2555.58,169.00
2556.77,233.00
2557.95,222.00
2559.13,212.00
2560.31,223.00
2561.50,190.00
2562.68,169.00
2563.85,191.00
2565.03,137.00
2566.21,95.00
2567.39,138.00
2568.56,169.00
2569.74,211.00
2570.91,233.00
2572.09,243.00
2573.26,222.00
2574.43,211.00
2575.61,222.00
2576.78,243.00
2577.95,191.00
2579.12,169.00
2580.29,222.00
2581.45,212.00
2582.62,201.00
2583.79,169.00
2584.95,159.00
2586.12,169.00
2587.28,169.00
2588.44,169.00
2589.61,190.00
2590.77,169.00
2591.93,148.00
2593.09,180.00
2594.25,180.00
2595.41,169.00
2596.56,191.00
2597.72,180.00
2598.88,169.00
2600.03,180.00
2601.19,222.00
2602.34,191.00
2603.50,180.00
2604.65,212.00
2605.80,170.00
2606.95,148.00
2608.10,148.00
2609.25,169.00
2610.40,169.00
2611.55,180.00
2612.70,180.00
2613.84,169.00
2614.99,159.00
2616.13,159.00
2617.28,159.00
2618.42,106.00
2619.56,137.00
2620.71,190.00
2621.85,191.00
2622.99,180.00
2624.13,159.00
2625.27,180.00
2626.40,169.00
2627.54,170.00
2628.68,159.00
2629.81,190.00
2630.95,158.00
2632.08,148.00
2633.22,222.00
2634.35,201.00
2635.48,201.00
2636.61,180.00
2637.74,222.00
2638.87,138.00
2640.00,95.00
2641.13,127.00
2642.26,95.00
2643.39,106.00
2644.51,105.00
2645.64,148.00
2646.76,191.00
2647.89,170.00
2649.01,169.00
2650.13,233.00
2651.25,212.00
2652.38,169.00
2653.50,180.00
2654.62,180.00
2655.73,169.00
2656.85,127.00
2657.97,180.00
2659.09,191.00
2660.20,180.00
2661.32,180.00
2662.43,137.00
2663.55,148.00
2664.66,138.00
2665.77,127.00
2666.88,148.00
2667.99,180.00
2669.10,159.00
2670.21,148.00
2671.32,95.00
2672.43,106.00
2673.54,191.00
2674.64,222.00
2675.75,116.00
2676.85,106.00
2677.96,159.00
2679.06,191.00
2680.16,191.00
2681.26,169.00
2682.37,138.00
2683.47,148.00
2684.57,116.00
2685.66,148.00
2686.76,159.00
2687.86,116.00
2688.96,148.00
2690.05,148.00
2691.15,159.00
2692.24,137.00
2693.34,85.00
2694.43,127.00
2695.52,127.00
2696.62,96.00
2697.71,127.00
2698.80,127.00
2699.89,116.00
2700.98,180.00
2702.06,149.00
2703.15,117.00
2704.24,85.00
2705.32,84.00
2706.41,84.00
2707.49,148.00
2708.58,159.00
2709.66,137.00
2710.74,85.00
2711.83,95.00
2712.91,85.00
2713.99,96.00
2715.07,106.00
2716.15,137.00
2717.22,180.00
2718.30,180.00
2719.38,170.00
2720.45,127.00
2721.53,116.00
2722.60,127.00
2723.68,106.00
2724.75,85.00
2725.82,106.00
2726.89,127.00
2727.97,116.00
2729.04,127.00
2730.11,106.00
2731.17,127.00
2732.24,64.00
2733.31,74.00
2734.38,95.00
2735.44,159.00
2736.51,127.00
2737.57,127.00
2738.64,127.00
2739.70,127.00
2740.76,127.00
2741.82,127.00
2742.89,117.00
2743.95,117.00
2745.01,127.00
2746.07,85.00
2747.12,85.00
2748.18,106.00
2749.24,74.00
2750.29,64.00
2751.35,95.00
2752.40,84.00
2753.46,95.00
2754.51,84.00
2755.57,138.00
2756.62,106.00
2757.67,127.00
2758.72,159.00
2759.77,106.00
2760.82,116.00
2761.87,64.00
2762.91,84.00
2763.96,85.00
2765.01,85.00
2766.05,85.00
2767.10,85.00
2768.14,95.00
2769.19,96.00
2770.23,74.00
2771.27,84.00
2772.31,75.00
2773.35,85.00
2774.40,106.00
2775.43,148.00
2776.47,169.00
2777.51,127.00
2778.55,127.00
2779.59,74.00
2780.62,85.00
2781.66,74.00
2782.69,74.00
2783.73,74.00
2784.76,74.00
2785.79,116.00
2786.82,116.00
2787.85,106.00
2788.89,127.00
2789.92,95.00
2790.94,85.00
2791.97,84.00
2793.00,95.00
2794.03,42.00
2795.05,32.00
2796.08,74.00
2797.11,85.00
2798.13,84.00
2799.15,74.00
2800.18,127.00
2801.20,127.00
2802.22,95.00
2803.24,75.00
2804.26,85.00
2805.28,53.00
2806.30,64.00
2807.32,31.00
2808.34,42.00
2809.35,42.00
2810.37,64.00
2811.39,63.00
2812.40,64.00
2813.41,106.00
2814.43,106.00
2815.44,84.00
2816.45,74.00
2817.46,63.00
2818.48,95.00
2819.49,127.00
2820.49,127.00
2821.50,85.00
2822.51,105.00
2823.52,96.00
2824.53,96.00
2825.53,106.00
2826.54,84.00
2827.54,21.00
2828.55,53.00
2829.55,64.00
2830.55,74.00
2831.55,106.00
2832.56,95.00
2833.56,43.00
2834.56,52.00
2835.56,42.00
2836.56,43.00
2837.55,95.00
2838.55,106.00
2839.55,85.00
2840.54,64.00
2841.54,84.00
2842.53,84.00
2843.53,42.00
2844.52,21.00
2845.51,74.00
2846.51,74.00
2847.50,53.00
2848.49,74.00
2849.48,106.00
2850.47,95.00
2851.46,137.00
2852.45,106.00
2853.43,106.00
2854.42,95.00
2855.41,127.00
2856.39,106.00
2857.38,53.00
2858.36,95.00
2859.34,32.00
2860.33,42.00
2861.31,127.00
2862.29,64.00
2863.27,43.00
2864.25,21.00
2865.23,32.00
2866.21,53.00
2867.19,32.00
2868.17,43.00
2869.14,64.00
2870.12,85.00
2871.09,42.00
2872.07,53.00
2873.04,43.00
2874.02,85.00
2874.99,127.00
2875.96,116.00
2876.93,106.00
2877.91,84.00
2878.88,63.00
2879.85,85.00
2880.82,84.00
2881.78,84.00
2882.75,53.00
2883.72,74.00
2884.69,64.00
2885.65,53.00
2886.62,74.00
2887.58,53.00
2888.55,74.00
2889.51,96.00
2890.47,64.00
2891.43,64.00
2892.39,95.00
2893.36,117.00
2894.31,64.00
2895.27,64.00
2896.23,84.00
2897.19,43.00
2898.15,64.00
2899.11,42.00
2900.06,-10.00
2901.02,63.00
2901.97,32.00
2902.93,-32.00
2903.88,0.00
2904.83,21.00
2905.79,74.00
2906.74,116.00
2907.69,32.00
2908.64,74.00
2909.59,63.00
2910.54,95.00
2911.49,127.00
2912.43,95.00
2913.38,95.00
2914.33,63.00
2915.27,105.00
2916.22,95.00
2917.16,95.00
2918.11,63.00
2919.05,106.00
2919.99,85.00
2920.94,85.00
2921.88,96.00
2922.82,85.00
2923.76,85.00
2924.70,84.00
2925.64,117.00
2926.58,106.00
2927.51,85.00
2928.45,43.00
2929.39,53.00
2930.32,85.00
2931.26,64.00
2932.19,22.00
2933.13,0.00
2934.06,21.00
2934.99,53.00
2935.92,32.00
2936.86,32.00
2937.79,63.00
2938.72,64.00
2939.65,117.00
2940.57,74.00
2941.50,53.00
2942.43,85.00
2943.36,106.00
2944.28,63.00
2945.21,52.00
2946.13,43.00
2947.06,32.00
2947.98,-11.00
2948.91,21.00
2949.83,53.00
2950.75,63.00
2951.67,53.00
2952.59,22.00
2953.51,42.00
2954.43,32.00
2955.35,0.00
2956.27,63.00
2957.19,95.00
2958.10,43.00
2959.02,43.00
2959.94,63.00
2960.85,74.00
2961.77,84.00
2962.68,53.00
2963.59,85.00
2964.51,84.00
2965.42,85.00
2966.33,95.00
2967.24,53.00
2968.15,42.00
2969.06,116.00
2969.97,74.00
2970.88,-11.00
2971.78,10.00
2972.69,53.00
2973.60,96.00
2974.50,106.00
2975.41,95.00
2976.31,63.00
2977.22,53.00
2978.12,74.00
2979.02,42.00
2979.93,21.00
2980.83,32.00
2981.73,64.00
2982.63,43.00
2983.53,53.00
2984.43,85.00
2985.33,42.00
2986.22,22.00
2987.12,31.00
2988.02,53.00
2988.91,0.00
2989.81,10.00
2990.70,0.00
2991.60,-11.00
2992.49,22.00
2993.38,42.00
2994.28,21.00
2995.17,42.00
2996.06,21.00
2996.95,32.00
2997.84,-21.00
2998.73,0.00
2999.62,11.00
3000.51,-21.00
3001.40,0.00
3002.28,10.00
3003.17,31.00
3004.05,21.00
3004.94,0.00
3005.82,-21.00
3006.71,10.00
3007.59,53.00
3008.47,64.00
3009.36,64.00
3010.24,53.00
3011.12,42.00
3012.00,43.00
3012.88,43.00
3013.76,53.00
3014.64,42.00
3015.51,32.00
3016.39,74.00
3017.27,84.00
3018.14,22.00
3019.02,21.00
3019.89,10.00
3020.77,32.00
3021.64,-10.00
3022.52,0.00
3023.39,84.00
3024.26,75.00
3025.13,53.00
3026.00,64.00
3026.87,95.00
3027.74,63.00
3028.61,0.00
3029.48,-21.00
3030.35,11.00
3031.21,10.00
3032.08,43.00
3032.95,32.00
3033.81,21.00
3034.68,-32.00
3035.54,-21.00
3036.40,21.00
3037.27,42.00
3038.13,-11.00
3038.99,10.00
3039.85,43.00
3040.71,43.00
3041.57,0.00
3042.43,43.00
3043.29,42.00
3044.15,22.00
3045.01,63.00
3045.86,63.00
3046.72,53.00
3047.58,-21.00
3048.43,-21.00
3049.29,22.00
3050.14,42.00
3050.99,42.00
3051.85,-11.00
3052.70,-31.00
3053.55,-21.00
3054.40,22.00
3055.25,21.00
3056.10,32.00
3056.95,10.00
3057.80,52.00
3058.65,53.00
3059.50,64.00
3060.34,21.00
3061.19,0.00
3062.04,11.00
3062.88,85.00
3063.73,74.00
3064.57,21.00
3065.42,64.00
3066.26,21.00
3067.10,32.00
3067.94,63.00
3068.78,0.00
3069.63,-22.00
3070.47,43.00
3071.31,74.00
3072.14,43.00
3072.98,11.00
3073.82,42.00
3074.66,64.00
3075.49,74.00
3076.33,32.00
3077.17,0.00
3078.00,0.00
3078.83,10.00
3079.67,-21.00
3080.50,11.00
3081.33,105.00
3082.17,148.00
3083.00,85.00
3083.83,-10.00
3084.66,53.00
3085.49,32.00
3086.32,-10.00
3087.15,-11.00
3087.97,53.00
3088.80,0.00
3089.63,-21.00
3090.46,-21.00
3091.28,42.00
3092.11,85.00
3092.93,10.00
3093.75,-21.00
3094.58,-43.00
3095.40,-32.00
3096.22,-43.00
3097.05,0.00
3097.87,0.00
3098.69,-21.00
3099.51,11.00
3100.33,22.00
3101.15,53.00
3101.96,-11.00
3102.78,11.00
3103.60,21.00
3104.42,53.00
3105.23,42.00
3106.05,11.00
3106.86,11.00
3107.68,21.00
3108.49,11.00
3109.30,0.00
3110.12,0.00
3110.93,22.00
3111.74,32.00
3112.55,10.00
3113.36,-21.00
3114.17,21.00
3114.98,43.00
3115.79,42.00
3116.60,0.00
3117.40,21.00
3118.21,32.00
3119.02,21.00
3119.82,32.00
3120.63,42.00
3121.43,32.00
3122.24,42.00
3123.04,21.00
3123.84,-21.00
3124.65,-32.00
3125.45,-32.00
3126.25,32.00
3127.05,63.00
3127.85,32.00
3128.65,11.00
3129.45,11.00
3130.25,11.00
3131.05,11.00
3131.84,-32.00
3132.64,53.00
3133.44,63.00
3134.23,64.00
3135.03,10.00
3135.82,-11.00
3136.62,0.00
3137.41,0.00
3138.20,0.00
3139.00,21.00
3139.79,0.00
3140.58,-10.00
3141.37,11.00
3142.16,43.00
3142.95,63.00
3143.74,21.00
3144.53,-42.00
3145.32,-53.00
3146.10,-22.00
3146.89,21.00
3147.68,10.00
3148.46,-32.00
3149.25,10.00
3150.03,0.00
3150.82,21.00
3151.60,42.00
3152.38,-21.00
3153.17,0.00
3153.95,10.00
3154.73,21.00
3155.51,0.00
3156.29,63.00
3157.07,21.00
3157.85,52.00
3158.63,42.00
3159.41,43.00
3160.18,32.00
3160.96,32.00
3161.74,42.00
3162.51,42.00
3163.29,74.00
3164.06,74.00
3164.84,-11.00
3165.61,-64.00
3166.38,-64.00
3167.16,-10.00
3167.93,11.00
3168.70,21.00
3169.47,21.00
3170.24,11.00
3171.01,32.00
3171.78,11.00
3172.55,11.00
3173.32,31.00
3174.09,53.00
3174.85,64.00
3175.62,42.00
3176.39,10.00
3177.15,0.00
3177.92,63.00
3178.68,74.00
3179.45,63.00
3180.21,42.00
3180.97,-42.00
3181.73,-42.00
3182.50,10.00
3183.26,53.00
3184.02,10.00
3184.78,-11.00
3185.54,-53.00
3186.30,21.00
3187.05,11.00
3187.81,0.00
3188.57,0.00
3189.33,43.00
3190.08,0.00
3190.84,21.00
3191.59,63.00
3192.35,42.00
3193.10,64.00
3193.86,21.00
3194.61,-21.00
3195.36,-42.00
3196.12,-22.00
3196.87,0.00
3197.62,53.00
3198.37,85.00
3199.12,64.00
3199.87,43.00
3200.62,0.00
3201.36,-42.00
3202.11,0.00
3202.86,10.00
3203.61,-42.00
3204.35,-31.00
3205.10,21.00
3205.84,43.00
3206.59,0.00
3207.33,0.00
3208.08,0.00
3208.82,0.00
3209.56,21.00
3210.30,21.00
3211.05,-42.00
3211.79,-11.00
3212.53,11.00
3213.27,32.00
3214.01,-10.00
3214.75,21.00
3215.48,43.00
3216.22,-21.00
3216.96,42.00
3217.69,43.00
3218.43,64.00
3219.17,42.00
3219.90,0.00
3220.64,0.00
3221.37,-32.00
3222.10,21.00
3222.84,74.00
3223.57,32.00
3224.30,22.00
3225.03,53.00
3225.76,-10.00
3226.49,-21.00
3227.22,0.00
3227.95,11.00
3228.68,21.00
3229.41,32.00
3230.14,53.00
3230.87,-11.00
3231.59,-11.00
3232.32,-32.00
3233.04,-64.00
3233.77,21.00
3234.49,53.00
3235.22,21.00
3235.94,32.00
3236.66,-21.00
3237.39,-21.00
3238.11,-31.00
3238.83,-42.00
3239.55,-42.00
3240.27,10.00
3240.99,-21.00
3241.71,-32.00
3242.43,0.00
3243.15,42.00
3243.87,10.00
3244.58,-10.00
3245.30,-21.00
3246.02,-42.00
3246.73,-63.00
3247.45,0.00
3248.16,0.00
3248.88,-32.00
3249.59,21.00
3250.30,21.00
3251.01,42.00
3251.73,42.00
3252.44,0.00
3253.15,-21.00
3253.86,-32.00
3254.57,-32.00
3255.28,43.00
3255.99,64.00
3256.70,-11.00
3257.41,0.00
3258.11,0.00
3258.82,0.00
3259.53,42.00
3260.23,-10.00
3260.94,-11.00
3261.64,53.00
3262.35,63.00
3263.05,31.00
3263.76,0.00
3264.46,-10.00
3265.16,0.00
3265.86,0.00
3266.56,53.00
3267.26,74.00
3267.97,21.00
3268.67,-11.00
3269.36,0.00
3270.06,0.00
3270.76,-21.00
3271.46,-11.00
3272.16,-32.00
3272.85,0.00
