RamanShift,Intensity
180.91,281.00
183.74,339.00
186.56,318.00
189.39,350.00
192.21,476.00
195.03,678.00
197.84,890.00
200.66,1069.00
203.47,1451.00
206.28,1843.00
209.09,2234.00
211.89,2499.00
214.70,2563.00
217.50,2658.00
220.30,2700.00
223.10,2859.00
225.89,2965.00
228.69,2997.00
231.48,2975.00
234.27,2997.00
237.05,3081.00
239.84,3029.00
242.62,2986.00
245.40,3071.00
248.18,3049.00
250.96,2954.00
253.73,2955.00
256.51,2859.00
259.28,2806.00
262.05,2912.00
264.81,2890.00
267.58,2923.00
270.34,2933.00
273.10,2859.00
275.86,2891.00
278.61,2838.00
281.37,2795.00
284.12,2828.00
286.87,2848.00
289.62,2774.00
292.36,2806.00
295.11,2870.00
297.85,2944.00
300.59,2912.00
303.33,2774.00
306.06,2817.00
308.80,2881.00
311.53,2870.00
314.26,2827.00
316.99,2764.00
319.71,2775.00
322.44,2849.00
325.16,2828.00
327.88,2764.00
330.59,2806.00
333.31,2785.00
336.02,2774.00
338.73,2701.00
341.44,2658.00
344.15,2711.00
346.86,2711.00
349.56,2722.00
352.26,2806.00
354.96,2827.00
357.66,2838.00
360.35,2807.00
363.05,2764.00
365.74,2732.00
368.43,2827.00
371.12,2796.00
373.80,2732.00
376.48,2827.00
379.17,2860.00
381.85,2860.00
384.52,2975.00
387.20,3028.00
389.87,3166.00
392.54,3028.00
395.21,2890.00
397.88,2933.00
400.55,2955.00
403.21,2870.00
405.87,2806.00
408.53,2870.00
411.19,2912.00
413.84,2838.00
416.50,2869.00
419.15,2944.00
421.80,2955.00
424.45,2934.00
427.10,2817.00
429.74,2785.00
432.38,2912.00
435.02,2891.00
437.66,2785.00
440.30,2806.00
442.93,2828.00
445.56,2944.00
448.19,2859.00
450.82,2891.00
453.45,2891.00
456.07,2828.00
458.70,2764.00
461.32,2849.00
463.94,2901.00
466.55,2954.00
469.17,2975.00
471.78,2922.00
474.39,2881.00
477.00,2870.00
479.61,2912.00
482.22,2933.00
484.82,3018.00
487.42,2933.00
490.02,2838.00
492.62,2848.00
495.21,2785.00
497.81,2785.00
500.40,2891.00
502.99,2891.00
505.58,2870.00
508.17,2859.00
510.75,2722.00
513.33,2785.00
515.91,2848.00
518.49,2849.00
521.07,2838.00
523.65,2785.00
526.22,2785.00
528.79,2721.00
531.36,2721.00
533.93,2785.00
536.49,2785.00
539.06,2807.00
541.62,2796.00
544.18,2689.00
546.74,2742.00
549.30,2806.00
551.85,2817.00
554.40,2743.00
556.95,2753.00
559.50,2827.00
562.05,2901.00
564.59,2785.00
567.14,2722.00
569.68,2785.00
572.22,2742.00
574.76,2743.00
577.29,2732.00
579.83,2690.00
582.36,2753.00
584.89,2690.00
587.42,2605.00
589.95,2658.00
592.47,2753.00
594.99,2785.00
597.52,2636.00
600.04,2521.00
602.55,2531.00
605.07,2489.00
607.58,2616.00
610.09,2637.00
612.60,2658.00
615.11,2616.00
617.62,2562.00
620.12,2573.00
622.63,2531.00
625.13,2467.00
627.63,2488.00
630.13,2509.00
632.62,2488.00
635.12,2616.00
637.61,2616.00
640.10,2414.00
642.59,2403.00
645.07,2489.00
647.56,2436.00
650.04,2436.00
652.52,2436.00
655.00,2499.00
657.48,2541.00
659.96,2520.00
662.43,2436.00
664.90,2425.00
667.37,2415.00
669.84,2425.00
672.31,2404.00
674.78,2425.00
677.24,2488.00
679.70,2393.00
682.16,2404.00
684.62,2403.00
687.08,2383.00
689.53,2446.00
691.98,2414.00
694.43,2288.00
696.88,2319.00
699.33,2372.00
701.78,2319.00
704.22,2298.00
706.66,2319.00
709.10,2256.00
711.54,2340.00
713.98,2362.00
716.42,2361.00
718.85,2361.00
721.28,2393.00
723.71,2393.00
726.14,2425.00
728.57,2488.00
730.99,2435.00
733.41,2467.00
735.83,2477.00
738.25,2488.00
740.67,2425.00
743.09,2351.00
745.50,2298.00
747.91,2245.00
750.33,2266.00
752.73,2255.00
755.14,2150.00
757.55,2150.00
759.95,2139.00
762.35,2150.00
764.75,2150.00
767.15,2129.00
769.55,2086.00
771.95,2118.00
774.34,2214.00
776.73,2234.00
779.12,2182.00
781.51,2129.00
783.90,2128.00
786.28,2033.00
788.67,2055.00
791.05,2128.00
793.43,2108.00
795.80,2108.00
798.18,1959.00
800.56,1949.00
802.93,2086.00
805.30,2128.00
807.67,2118.00
810.04,2075.00
812.40,2001.00
814.77,2001.00
817.13,1970.00
819.49,1959.00
821.85,1991.00
824.21,1980.00
826.57,1991.00
828.92,2022.00
831.27,2065.00
833.63,1970.00
835.98,1980.00
838.32,2043.00
840.67,2012.00
843.01,1959.00
845.36,2002.00
847.70,2096.00
850.04,2044.00
852.37,1980.00
854.71,1927.00
857.05,1895.00
859.38,1938.00
861.71,1874.00
864.04,1801.00
866.37,1853.00
868.69,1853.00
871.02,1832.00
873.34,1938.00
875.66,1990.00
877.98,1980.00
880.30,1906.00
882.62,1884.00
884.93,1938.00
887.24,1927.00
889.55,1980.00
891.86,1863.00
894.17,1854.00
896.48,1853.00
898.78,1811.00
901.09,1853.00
903.39,1884.00
905.69,1800.00
907.99,1790.00
910.28,1821.00
912.58,1917.00
914.87,1884.00
917.16,1810.00
919.45,1695.00
921.74,1737.00
924.03,1769.00
926.31,1726.00
928.60,1694.00
930.88,1704.00
933.16,1748.00
935.44,1789.00
937.72,1822.00
939.99,1822.00
942.26,1790.00
944.54,1748.00
946.81,1716.00
949.08,1716.00
951.34,1736.00
953.61,1705.00
955.87,1727.00
958.14,1758.00
960.40,1642.00
962.66,1694.00
964.92,1769.00
967.17,1705.00
969.43,1726.00
971.68,1736.00
973.93,1694.00
976.18,1726.00
978.43,1683.00
980.68,1663.00
982.92,1673.00
985.17,1652.00
987.41,1652.00
989.65,1663.00
991.89,1673.00
994.12,1599.00
996.36,1620.00
998.59,1694.00
1000.83,1641.00
1003.06,1588.00
1005.29,1673.00
1007.51,1673.00
1009.74,1599.00
1011.97,1556.00
1014.19,1599.00
1016.41,1715.00
1018.63,1641.00
1020.85,1546.00
1023.07,1567.00
1025.28,1578.00
1027.49,1620.00
1029.71,1662.00
1031.92,1631.00
1034.13,1599.00
1036.33,1589.00
1038.54,1609.00
1040.74,1705.00
1042.95,1620.00
1045.15,1525.00
1047.35,1462.00
1049.55,1366.00
1051.74,1462.00
1053.94,1578.00
1056.13,1620.00
1058.32,1556.00
1060.51,1493.00
1062.70,1589.00
1064.89,1631.00
1067.08,1525.00
1069.26,1515.00
1071.44,1599.00
1073.63,1556.00
1075.81,1525.00
1077.98,1441.00
1080.16,1441.00
1082.34,1525.00
1084.51,1493.00
1086.68,1451.00
1088.85,1514.00
1091.02,1471.00
1093.19,1504.00
1095.35,1493.00
1097.52,1493.00
1099.68,1535.00
1101.84,1461.00
1104.00,1461.00
1106.16,1366.00
1108.32,1397.00
1110.48,1483.00
1112.63,1345.00
1114.78,1291.00
1116.93,1377.00
1119.08,1408.00
1121.23,1397.00
1123.38,1429.00
1125.52,1440.00
1127.67,1472.00
1129.81,1387.00
1131.95,1345.00
1134.09,1429.00
1136.22,1366.00
1138.36,1313.00
1140.50,1419.00
1142.63,1429.00
1144.76,1377.00
1146.89,1409.00
1149.02,1366.00
1151.15,1356.00
1153.27,1376.00
1155.40,1366.00
1157.52,1356.00
1159.64,1271.00
1161.76,1345.00
1163.88,1376.00
1165.99,1355.00
1168.11,1356.00
1170.22,1344.00
1172.34,1409.00
1174.45,1376.00
1176.56,1323.00
1178.66,1334.00
1180.77,1292.00
1182.88,1270.00
1184.98,1324.00
1187.08,1356.00
1189.18,1345.00
1191.28,1270.00
1193.38,1282.00
1195.47,1292.00
1197.57,1345.00
1199.66,1334.00
1201.75,1313.00
1203.85,1271.00
1205.93,1302.00
1208.02,1345.00
1210.11,1292.00
1212.19,1323.00
1214.28,1398.00
1216.36,1281.00
1218.44,1291.00
1220.52,1355.00
1222.59,1355.00
1224.67,1261.00
1226.74,1249.00
1228.82,1228.00
1230.89,1218.00
1232.96,1260.00
1235.03,1197.00
1237.10,1239.00
1239.16,1282.00
1241.23,1228.00
1243.29,1249.00
1245.35,1165.00
1247.41,1144.00
1249.47,1197.00
1251.53,1239.00
1253.58,1186.00
1255.64,1164.00
1257.69,1144.00
1259.74,1155.00
1261.79,1165.00
1263.84,1186.00
1265.89,1207.00
1267.93,1239.00
1269.98,1260.00
1272.02,1218.00
1274.06,1165.00
1276.10,1239.00
1278.14,1218.00
1280.18,1133.00
1282.22,1175.00
1284.25,1186.00
1286.28,1091.00
1288.32,1111.00
1290.35,1102.00
1292.38,1102.00
1294.40,1154.00
1296.43,1164.00
1298.46,1260.00
1300.48,1250.00
1302.50,1144.00
1304.52,1186.00
1306.54,1144.00
1308.56,1133.00
1310.58,1186.00
1312.59,1154.00
1314.60,1101.00
1316.62,1154.00
1318.63,1229.00
1320.64,1207.00
1322.65,1260.00
1324.65,1303.00
1326.66,1228.00
1328.66,1196.00
1330.66,1154.00
1332.67,1176.00
1334.67,1186.00
1336.66,1154.00
1338.66,1218.00
1340.66,1144.00
1342.65,1122.00
1344.65,1186.00
1346.64,1155.00
1348.63,1080.00
1350.62,1133.00
1352.60,1260.00
1354.59,1165.00
1356.57,1080.00
1358.56,1155.00
1360.54,1122.00
1362.52,1037.00
1364.50,1017.00
1366.48,1080.00
1368.46,1080.00
1370.43,1038.00
1372.41,1048.00
1374.38,1133.00
1376.35,1133.00
1378.32,1090.00
1380.29,1048.00
1382.25,1038.00
1384.22,1038.00
1386.18,1017.00
1388.15,1080.00
1390.11,1091.00
1392.07,1080.00
1394.03,1059.00
1395.99,1037.00
1397.94,1069.00
1399.90,1111.00
1401.85,1101.00
1403.80,1048.00
1405.76,1048.00
1407.71,1049.00
1409.65,1038.00
1411.60,1070.00
1413.55,1080.00
1415.49,1080.00
1417.44,995.00
1419.38,953.00
1421.32,985.00
1423.26,1006.00
1425.19,1006.00
1427.13,1027.00
1429.07,943.00
1431.00,889.00
1432.93,922.00
1434.86,1017.00
1436.79,1048.00
1438.72,1059.00
1440.65,1027.00
1442.57,1027.00
1444.50,975.00
1446.42,900.00
1448.34,858.00
1450.26,943.00
1452.18,964.00
1454.10,942.00
1456.02,1027.00
1457.93,1017.00
1459.85,1006.00
1461.76,921.00
1463.67,879.00
1465.58,953.00
1467.49,922.00
1469.40,847.00
1471.31,921.00
1473.21,942.00
1475.11,963.00
1477.02,953.00
1478.92,815.00
1480.82,816.00
1482.72,868.00
1484.61,879.00
1486.51,922.00
1488.40,910.00
1490.30,911.00
1492.19,879.00
1494.08,890.00
1495.97,869.00
1497.86,869.00
1499.74,879.00
1501.63,879.00
1503.51,826.00
1505.40,805.00
1507.28,889.00
1509.16,826.00
1511.04,783.00
1512.92,868.00
1514.79,889.00
1516.67,869.00
1518.54,921.00
1520.42,900.00
1522.29,858.00
1524.16,910.00
1526.03,890.00
1527.89,858.00
1529.76,869.00
1531.63,879.00
1533.49,910.00
1535.35,836.00
1537.21,889.00
1539.07,879.00
1540.93,879.00
1542.79,847.00
1544.65,911.00
1546.50,826.00
1548.36,815.00
1550.21,879.00
1552.06,858.00
1553.91,868.00
1555.76,890.00
1557.61,890.00
1559.45,911.00
1561.30,847.00
1563.14,858.00
1564.98,837.00
1566.82,742.00
1568.67,752.00
1570.50,794.00
1572.34,794.00
1574.18,783.00
1576.01,763.00
1577.85,815.00
1579.68,847.00
1581.51,879.00
1583.34,858.00
1585.17,837.00
1587.00,805.00
1588.82,773.00
1590.65,805.00
1592.47,837.00
1594.30,794.00
1596.12,826.00
1597.94,847.00
1599.76,805.00
1601.57,731.00
1603.39,783.00
1605.21,763.00
1607.02,783.00
1608.83,837.00
1610.64,784.00
1612.45,784.00
1614.26,805.00
1616.07,783.00
1617.88,784.00
1619.68,731.00
1621.49,826.00
1623.29,848.00
1625.09,752.00
1626.89,794.00
1628.69,826.00
1630.49,868.00
1632.29,773.00
1634.08,688.00
1635.88,720.00
1637.67,741.00
1639.46,709.00
1641.25,688.00
1643.04,710.00
1644.83,763.00
1646.62,699.00
1648.41,699.00
1650.19,752.00
1651.97,805.00
1653.76,762.00
1655.54,730.00
1657.32,763.00
1659.10,752.00
1660.88,667.00
1662.65,636.00
1664.43,667.00
1666.20,699.00
1667.97,742.00
1669.75,699.00
1671.52,657.00
1673.29,646.00
1675.05,583.00
1676.82,625.00
1678.59,678.00
1680.35,688.00
1682.11,646.00
1683.88,572.00
1685.64,593.00
1687.40,678.00
1689.16,709.00
1690.91,678.00
1692.67,646.00
1694.42,562.00
1696.18,614.00
1697.93,678.00
1699.68,667.00
1701.43,657.00
1703.18,593.00
1704.93,635.00
1706.68,635.00
1708.42,635.00
1710.17,614.00
1711.91,646.00
1713.65,625.00
1715.39,657.00
1717.13,646.00
1718.87,625.00
1720.61,646.00
1722.35,624.00
1724.08,624.00
1725.81,635.00
1727.55,657.00
1729.28,635.00
1731.01,614.00
1732.74,614.00
1734.47,635.00
1736.19,636.00
1737.92,593.00
1739.64,582.00
1741.37,636.00
1743.09,561.00
1744.81,615.00
1746.53,677.00
1748.25,677.00
1749.97,624.00
1751.68,625.00
1753.40,583.00
1755.11,540.00
1756.83,562.00
1758.54,529.00
1760.25,624.00
1761.96,688.00
1763.67,615.00
1765.38,614.00
1767.08,614.00
1768.79,604.00
1770.49,572.00
1772.19,561.00
1773.90,508.00
1775.60,530.00
1777.30,551.00
1778.99,561.00
1780.69,530.00
1782.39,487.00
1784.08,561.00
1785.78,540.00
1787.47,540.00
1789.16,540.00
1790.85,519.00
1792.54,519.00
1794.23,508.00
1795.91,498.00
1797.60,519.00
1799.28,519.00
1800.97,529.00
1802.65,582.00
1804.33,593.00
1806.01,540.00
1807.69,561.00
1809.37,530.00
1811.05,540.00
1812.72,529.00
1814.40,561.00
1816.07,593.00
1817.74,583.00
1819.41,530.00
1821.08,582.00
1822.75,561.00
1824.42,509.00
1826.09,551.00
1827.75,540.00
1829.42,519.00
1831.08,519.00
1832.74,572.00
1834.40,551.00
1836.06,509.00
1837.72,508.00
1839.38,509.00
1841.04,519.00
1842.69,593.00
1844.35,529.00
1846.00,487.00
1847.65,561.00
1849.30,519.00
1850.95,424.00
1852.60,519.00
1854.25,530.00
1855.90,445.00
1857.54,424.00
1859.19,445.00
1860.83,455.00
1862.47,444.00
1864.12,497.00
1865.76,487.00
1867.40,445.00
1869.03,413.00
1870.67,445.00
1872.31,529.00
1873.94,583.00
1875.57,487.00
1877.21,445.00
1878.84,487.00
1880.47,487.00
1882.10,487.00
1883.73,508.00
1885.35,444.00
1886.98,466.00
1888.61,466.00
1890.23,466.00
1891.85,498.00
1893.47,498.00
1895.09,476.00
1896.71,487.00
1898.33,487.00
1899.95,466.00
1901.57,466.00
1903.18,466.00
1904.80,413.00
1906.41,413.00
1908.02,445.00
1909.63,487.00
1911.24,476.00
1912.85,487.00
1914.46,518.00
1916.07,497.00
1917.67,413.00
1919.28,466.00
1920.88,476.00
1922.48,445.00
1924.08,423.00
1925.68,381.00
1927.28,402.00
1928.88,434.00
1930.48,424.00
1932.07,445.00
1933.67,434.00
1935.26,413.00
1936.86,445.00
1938.45,497.00
1940.04,487.00
1941.63,487.00
1943.22,498.00
1944.80,455.00
1946.39,382.00
1947.98,402.00
1949.56,434.00
1951.14,381.00
1952.73,392.00
1954.31,423.00
1955.89,392.00
1957.47,435.00
1959.05,434.00
1960.62,381.00
1962.20,370.00
1963.77,392.00
1965.35,435.00
1966.92,413.00
1968.49,413.00
1970.06,381.00
1971.63,434.00
1973.20,424.00
1974.77,402.00
1976.34,392.00
1977.90,381.00
1979.47,413.00
1981.03,424.00
1982.59,413.00
1984.15,402.00
1985.71,413.00
1987.27,382.00
1988.83,392.00
1990.39,424.00
1991.94,381.00
1993.50,360.00
1995.05,403.00
1996.61,402.00
1998.16,371.00
1999.71,402.00
2001.26,338.00
2002.81,339.00
2004.36,402.00
2005.91,423.00
2007.45,370.00
2009.00,360.00
2010.54,360.00
2012.08,360.00
2013.62,350.00
2015.17,360.00
2016.71,338.00
2018.24,360.00
2019.78,360.00
2021.32,392.00
2022.85,381.00
2024.39,360.00
2025.92,339.00
2027.46,339.00
2028.99,382.00
2030.52,381.00
2032.05,371.00
2033.58,339.00
2035.10,360.00
2036.63,349.00
2038.16,371.00
2039.68,402.00
2041.21,402.00
2042.73,434.00
2044.25,402.00
2045.77,350.00
2047.29,297.00
2048.81,286.00
2050.33,371.00
2051.84,381.00
2053.36,371.00
2054.87,371.00
2056.39,349.00
2057.90,360.00
2059.41,371.00
2060.92,329.00
2062.43,371.00
2063.94,370.00
2065.45,360.00
2066.95,350.00
2068.46,381.00
2069.96,381.00
2071.47,381.00
2072.97,338.00
2074.47,328.00
2075.97,339.00
2077.47,392.00
2078.97,371.00
2080.47,350.00
2081.96,328.00
2083.46,349.00
2084.95,371.00
2086.45,413.00
2087.94,338.00
2089.43,307.00
2090.92,328.00
2092.41,318.00
2093.90,297.00
2095.39,307.00
2096.88,349.00
2098.36,371.00
2099.85,381.00
2101.33,317.00
2102.81,243.00
2104.30,276.00
2105.78,254.00
2107.26,349.00
2108.74,360.00
2110.21,307.00
2111.69,307.00
2113.17,329.00
2114.64,403.00
2116.12,308.00
2117.59,275.00
2119.06,275.00
2120.53,297.00
2122.00,307.00
2123.47,329.00
2124.94,317.00
2126.41,254.00
2127.87,254.00
2129.34,307.00
2130.80,254.00
2132.27,254.00
2133.73,317.00
2135.19,328.00
2136.65,307.00
2138.11,307.00
2139.57,307.00
2141.03,275.00
2142.48,307.00
2143.94,244.00
2145.39,254.00
2146.85,286.00
2148.30,349.00
2149.75,381.00
2151.20,286.00
2152.65,254.00
2154.10,286.00
2155.55,318.00
2157.00,296.00
2158.44,264.00
2159.89,265.00
2161.33,254.00
2162.78,275.00
2164.22,243.00
2165.66,254.00
2167.10,286.00
2168.54,243.00
2169.98,222.00
2171.42,212.00
2172.85,233.00
2174.29,211.00
2175.72,222.00
2177.16,212.00
2178.59,254.00
2180.02,254.00
2181.45,265.00
2182.88,254.00
2184.31,275.00
2185.74,296.00
2187.17,317.00
2188.59,243.00
2190.02,233.00
2191.44,212.00
2192.87,211.00
2194.29,244.00
2195.71,222.00
2197.13,275.00
2198.55,233.00
2199.97,222.00
2201.39,233.00
2202.81,232.00
2204.22,223.00
2205.64,296.00
2207.05,265.00
2208.46,275.00
2209.88,254.00
2211.29,169.00
2212.70,202.00
2214.11,212.00
2215.52,222.00
2216.92,296.00
2218.33,233.00
2219.74,222.00
2221.14,243.00
2222.54,275.00
2223.95,275.00
2225.35,254.00
2226.75,223.00
2228.15,244.00
2229.55,265.00
2230.95,233.00
2232.35,254.00
2233.74,212.00
2235.14,232.00
2236.53,232.00
2237.93,275.00
2239.32,307.00
2240.71,244.00
2242.10,201.00
2243.49,222.00
2244.88,244.00
2246.27,201.00
2247.66,201.00
2249.04,212.00
2250.43,201.00
2251.81,233.00
2253.20,254.00
2254.58,285.00
2255.96,307.00
2257.34,233.00
2258.72,233.00
2260.10,233.00
2261.48,286.00
2262.86,233.00
2264.23,159.00
2265.61,148.00
2266.98,159.00
2268.36,169.00
2269.73,191.00
2271.10,180.00
2272.47,169.00
2273.84,233.00
2275.21,211.00
2276.58,254.00
2277.95,275.00
2279.31,212.00
2280.68,233.00
2282.05,243.00
2283.41,222.00
2284.77,202.00
2286.13,223.00
2287.50,201.00
2288.86,201.00
2290.22,212.00
2291.57,201.00
2292.93,233.00
2294.29,201.00
2295.64,212.00
2297.00,169.00
2298.35,127.00
2299.71,180.00
2301.06,222.00
2302.41,191.00
2303.76,233.00
2305.11,223.00
2306.46,191.00
2307.81,170.00
2309.15,148.00
2310.50,148.00
2311.84,169.00
2313.19,180.00
2314.53,191.00
2315.87,233.00
2317.22,190.00
2318.56,148.00
2319.90,148.00
2321.24,148.00
2322.57,211.00
2323.91,191.00
2325.25,148.00
2326.58,127.00
2327.92,158.00
2329.25,190.00
2330.58,190.00
2331.91,148.00
2333.25,127.00
2334.58,127.00
2335.90,169.00
2337.23,169.00
2338.56,180.00
2339.89,191.00
2341.21,211.00
2342.54,233.00
2343.86,211.00
2345.19,127.00
2346.51,127.00
2347.83,170.00
2349.15,180.00
2350.47,170.00
2351.79,233.00
2353.11,201.00
2354.42,169.00
2355.74,127.00
2357.06,127.00
2358.37,190.00
2359.68,148.00
2361.00,117.00
2362.31,169.00
2363.62,180.00
2364.93,222.00
2366.24,222.00
2367.55,159.00
2368.86,127.00
2370.16,159.00
2371.47,169.00
2372.77,169.00
2374.08,170.00
2375.38,149.00
2376.68,169.00
2377.98,148.00
2379.29,159.00
2380.59,191.00
2381.88,211.00
2383.18,190.00
2384.48,169.00
2385.78,148.00
2387.07,201.00
2388.37,180.00
2389.66,158.00
2390.95,127.00
2392.25,127.00
2393.54,148.00
2394.83,117.00
2396.12,84.00
2397.41,106.00
2398.70,85.00
2399.98,148.00
2401.27,148.00
2402.55,159.00
2403.84,137.00
2405.12,127.00
2406.41,169.00
2407.69,180.00
2408.97,169.00
2410.25,149.00
2411.53,75.00
2412.81,106.00
2414.09,138.00
2415.36,137.00
2416.64,148.00
2417.91,127.00
2419.19,117.00
2420.46,169.00
2421.74,116.00
2423.01,106.00
2424.28,116.00
2425.55,116.00
2426.82,127.00
2428.09,127.00
2429.36,158.00
2430.62,191.00
2431.89,148.00
2433.15,170.00
2434.42,84.00
2435.68,64.00
2436.94,84.00
2438.21,127.00
2439.47,137.00
2440.73,159.00
2441.99,159.00
2443.25,159.00
2444.51,117.00
2445.76,127.00
2447.02,117.00
2448.27,106.00
2449.53,127.00
2450.78,117.00
2452.03,106.00
2453.29,85.00
2454.54,106.00
2455.79,137.00
2457.04,169.00
2458.29,106.00
2459.54,127.00
2460.78,127.00
2462.03,127.00
2463.27,148.00
2464.52,95.00
2465.76,105.00
2467.01,85.00
2468.25,84.00
2469.49,127.00
2470.73,137.00
2471.97,137.00
2473.21,95.00
2474.45,106.00
2475.69,148.00
2476.92,127.00
2478.16,95.00
2479.39,106.00
2480.63,148.00
2481.86,127.00
2483.09,106.00
2484.32,85.00
2485.56,53.00
2486.79,106.00
2488.02,106.00
2489.24,127.00
2490.47,105.00
2491.70,106.00
2492.92,96.00
2494.15,95.00
2495.37,116.00
2496.60,138.00
2497.82,148.00
2499.04,148.00
2500.26,148.00
2501.48,106.00
2502.70,127.00
2503.92,137.00
2505.14,106.00
2506.36,127.00
2507.58,84.00
2508.79,106.00
2510.01,127.00
2511.22,170.00
2512.43,137.00
2513.64,63.00
2514.86,53.00
2516.07,105.00
2517.28,138.00
2518.49,159.00
2519.70,159.00
2520.90,127.00
2522.11,106.00
2523.32,127.00
2524.52,106.00
2525.73,116.00
2526.93,74.00
2528.13,53.00
2529.33,74.00
2530.54,84.00
2531.74,106.00
2532.94,116.00
2534.14,159.00
2535.33,169.00
2536.53,106.00
2537.73,127.00
2538.92,159.00
2540.12,106.00
2541.31,74.00
2542.51,84.00
2543.70,95.00
2544.89,127.00
2546.08,95.00
2547.27,0.00
2548.46,53.00
2549.65,106.00
2550.84,116.00
2552.03,84.00
2553.21,105.00
2554.40,148.00
2555.58,106.00
2556.77,116.00
2557.95,127.00
2559.13,106.00
2560.31,84.00
2561.50,148.00
2562.68,85.00
2563.85,74.00
2565.03,116.00
2566.21,127.00
2567.39,106.00
2568.56,106.00
2569.74,127.00
2570.91,85.00
2572.09,84.00
2573.26,106.00
2574.43,138.00
2575.61,84.00
2576.78,42.00
2577.95,53.00
2579.12,106.00
2580.29,95.00
2581.45,74.00
2582.62,105.00
2583.79,116.00
2584.95,85.00
2586.12,52.00
2587.28,53.00
2588.44,53.00
2589.61,53.00
2590.77,63.00
2591.93,64.00
2593.09,21.00
2594.25,10.00
2595.41,63.00
2596.56,95.00
2597.72,137.00
2598.88,85.00
2600.03,95.00
2601.19,53.00
2602.34,74.00
2603.50,95.00
2604.65,74.00
2605.80,84.00
2606.95,84.00
2608.10,75.00
2609.25,85.00
2610.40,32.00
2611.55,43.00
2612.70,21.00
2613.84,84.00
2614.99,116.00
2616.13,42.00
2617.28,32.00
2618.42,74.00
2619.56,42.00
2620.71,64.00
2621.85,21.00
2622.99,42.00
2624.13,52.00
2625.27,74.00
2626.40,138.00
2627.54,148.00
2628.68,106.00
2629.81,74.00
2630.95,42.00
2632.08,74.00
2633.22,85.00
2634.35,105.00
2635.48,85.00
2636.61,53.00
2637.74,85.00
2638.87,84.00
2640.00,75.00
2641.13,63.00
2642.26,74.00
2643.39,74.00
2644.51,84.00
2645.64,84.00
2646.76,74.00
2647.89,106.00
2649.01,95.00
2650.13,105.00
2651.25,53.00
2652.38,85.00
2653.50,106.00
2654.62,63.00
2655.73,85.00
2656.85,106.00
2657.97,64.00
2659.09,127.00
2660.20,95.00
2661.32,106.00
2662.43,84.00
2663.55,64.00
2664.66,32.00
2665.77,63.00
2666.88,53.00
2667.99,53.00
2669.10,75.00
2670.21,53.00
2671.32,64.00
2672.43,74.00
2673.54,84.00
2674.64,42.00
2675.75,21.00
2676.85,64.00
2677.96,127.00
2679.06,106.00
2680.16,95.00
2681.26,85.00
2682.37,85.00
2683.47,84.00
2684.57,95.00
2685.66,32.00
2686.76,53.00
2687.86,85.00
2688.96,95.00
2690.05,85.00
2691.15,64.00
2692.24,74.00
2693.34,63.00
2694.43,42.00
2695.52,42.00
2696.62,32.00
2697.71,85.00
2698.80,106.00
2699.89,63.00
2700.98,32.00
2702.06,96.00
2703.15,117.00
2704.24,75.00
2705.32,74.00
2706.41,106.00
2707.49,117.00
2708.58,85.00
2709.66,85.00
2710.74,116.00
2711.83,106.00
2712.91,95.00
2713.99,85.00
2715.07,106.00
2716.15,64.00
2717.22,63.00
2718.30,43.00
2719.38,32.00
2720.45,64.00
2721.53,106.00
2722.60,85.00
2723.68,84.00
2724.75,63.00
2725.82,75.00
2726.89,53.00
2727.97,21.00
2729.04,52.00
2730.11,63.00
2731.17,42.00
2732.24,64.00
2733.31,21.00
2734.38,53.00
2735.44,53.00
2736.51,32.00
2737.57,-10.00
2738.64,-11.00
2739.70,11.00
2740.76,32.00
2741.82,64.00
2742.89,63.00
2743.95,106.00
2745.01,95.00
2746.07,74.00
2747.12,63.00
2748.18,64.00
2749.24,64.00
2750.29,127.00
2751.35,63.00
2752.40,0.00
2753.46,0.00
2754.51,22.00
2755.57,64.00
2756.62,32.00
2757.67,21.00
2758.72,74.00
2759.77,63.00
2760.82,53.00
2761.87,64.00
2762.91,31.00
2763.96,85.00
2765.01,84.00
2766.05,74.00
2767.10,32.00
2768.14,63.00
2769.19,64.00
2770.23,42.00
2771.27,85.00
2772.31,53.00
2773.35,42.00
2774.40,138.00
2775.43,116.00
2776.47,22.00
2777.51,21.00
2778.55,21.00
2779.59,-22.00
2780.62,-21.00
2781.66,11.00
2782.69,0.00
2783.73,21.00
2784.76,42.00
2785.79,53.00
2786.82,63.00
2787.85,74.00
2788.89,32.00
2789.92,-21.00
2790.94,64.00
2791.97,95.00
2793.00,21.00
2794.03,21.00
2795.05,-11.00
2796.08,0.00
2797.11,-11.00
2798.13,32.00
2799.15,85.00
2800.18,85.00
2801.20,63.00
2802.22,42.00
2803.24,53.00
2804.26,42.00
2805.28,32.00
2806.30,11.00
2807.32,22.00
2808.34,0.00
2809.35,-10.00
2810.37,-21.00
2811.39,0.00
2812.40,10.00
2813.41,43.00
2814.43,43.00
2815.44,42.00
2816.45,64.00
2817.46,42.00
2818.48,85.00
2819.49,75.00
2820.49,-10.00
2821.50,-10.00
2822.51,21.00
2823.52,42.00
2824.53,21.00
2825.53,-43.00
2826.54,-21.00
2827.54,21.00
2828.55,85.00
2829.55,106.00
2830.55,74.00
2831.55,85.00
2832.56,42.00
2833.56,10.00
2834.56,21.00
2835.56,0.00
2836.56,-21.00
2837.55,53.00
2838.55,32.00
2839.55,64.00
2840.54,95.00
2841.54,53.00
2842.53,32.00
2843.53,31.00
2844.52,21.00
2845.51,-11.00
2846.51,-42.00
2847.50,53.00
2848.49,42.00
2849.48,42.00
2850.47,32.00
2851.46,21.00
2852.45,52.00
2853.43,43.00
2854.42,42.00
2855.41,32.00
2856.39,21.00
2857.38,21.00
2858.36,43.00
2859.34,42.00
2860.33,22.00
2861.31,32.00
2862.29,32.00
2863.27,21.00
2864.25,32.00
2865.23,64.00
2866.21,21.00
2867.19,0.00
2868.17,22.00
2869.14,32.00
2870.12,22.00
2871.09,-22.00
2872.07,10.00
2873.04,64.00
2874.02,84.00
2874.99,106.00
2875.96,64.00
2876.93,53.00
2877.91,42.00
2878.88,21.00
2879.85,0.00
2880.82,31.00
2881.78,85.00
2882.75,84.00
2883.72,85.00
2884.69,74.00
2885.65,11.00
2886.62,0.00
2887.58,11.00
2888.55,42.00
2889.51,64.00
2890.47,42.00
2891.43,42.00
2892.39,53.00
2893.36,63.00
2894.31,22.00
2895.27,42.00
2896.23,11.00
2897.19,63.00
2898.15,43.00
2899.11,42.00
2900.06,42.00
2901.02,10.00
2901.97,21.00
2902.93,21.00
2903.88,0.00
2904.83,42.00
2905.79,42.00
2906.74,0.00
2907.69,31.00
2908.64,42.00
2909.59,32.00
2910.54,22.00
2911.49,-21.00
2912.43,53.00
2913.38,53.00
2914.33,-11.00
2915.27,0.00
2916.22,42.00
2917.16,74.00
2918.11,42.00
2919.05,32.00
2919.99,22.00
2920.94,32.00
2921.88,22.00
2922.82,21.00
2923.76,11.00
2924.70,22.00
2925.64,42.00
2926.58,0.00
2927.51,0.00
2928.45,0.00
2929.39,21.00
2930.32,22.00
2931.26,0.00
2932.19,22.00
2933.13,52.00
2934.06,11.00
2934.99,-11.00
2935.92,-42.00
2936.86,-21.00
2937.79,21.00
2938.72,42.00
2939.65,-11.00
2940.57,0.00
2941.50,42.00
2942.43,64.00
2943.36,43.00
2944.28,0.00
2945.21,10.00
2946.13,10.00
2947.06,42.00
2947.98,-11.00
2948.91,-42.00
2949.83,-32.00
2950.75,64.00
2951.67,84.00
2952.59,74.00
2953.51,22.00
2954.43,32.00
2955.35,31.00
2956.27,53.00
2957.19,42.00
2958.10,-31.00
2959.02,-32.00
2959.94,42.00
2960.85,74.00
2961.77,75.00
2962.68,63.00
2963.59,22.00
2964.51,31.00
2965.42,21.00
2966.33,42.00
2967.24,22.00
2968.15,0.00
2969.06,11.00
2969.97,0.00
2970.88,-21.00
2971.78,74.00
2972.69,85.00
2973.60,22.00
2974.50,-22.00
2975.41,-21.00
2976.31,84.00
2977.22,117.00
2978.12,64.00
2979.02,43.00
2979.93,43.00
2980.83,-10.00
2981.73,-21.00
2982.63,0.00
2983.53,53.00
2984.43,22.00
2985.33,21.00
2986.22,0.00
2987.12,-22.00
2988.02,0.00
2988.91,52.00
2989.81,42.00
2990.70,-21.00
2991.60,-21.00
2992.49,43.00
2993.38,21.00
2994.28,0.00
2995.17,-11.00
2996.06,0.00
2996.95,21.00
2997.84,22.00
2998.73,11.00
2999.62,21.00
3000.51,10.00
3001.40,11.00
3002.28,43.00
3003.17,53.00
3004.05,42.00
3004.94,43.00
3005.82,0.00
3006.71,0.00
3007.59,63.00
3008.47,42.00
3009.36,-21.00
3010.24,0.00
3011.12,42.00
3012.00,32.00
3012.88,22.00
3013.76,0.00
3014.64,-21.00
3015.51,21.00
3016.39,63.00
3017.27,32.00
3018.14,64.00
3019.02,85.00
3019.89,31.00
3020.77,-10.00
3021.64,-10.00
3022.52,42.00
3023.39,74.00
3024.26,42.00
3025.13,53.00
3026.00,64.00
3026.87,22.00
3027.74,42.00
3028.61,21.00
3029.48,43.00
3030.35,32.00
3031.21,-10.00
3032.08,21.00
3032.95,10.00
3033.81,-42.00
3034.68,-10.00
3035.54,31.00
3036.40,53.00
3037.27,21.00
3038.13,-11.00
3038.99,21.00
3039.85,32.00
3040.71,-42.00
3041.57,-64.00
3042.43,-11.00
3043.29,-10.00
3044.15,0.00
3045.01,0.00
3045.86,10.00
3046.72,-11.00
3047.58,-53.00
3048.43,-64.00
3049.29,-42.00
3050.14,11.00
3050.99,43.00
3051.85,0.00
3052.70,0.00
3053.55,0.00
3054.40,31.00
3055.25,53.00
3056.10,21.00
3056.95,43.00
3057.80,52.00
3058.65,21.00
3059.50,0.00
3060.34,53.00
3061.19,64.00
3062.04,53.00
3062.88,11.00
3063.73,0.00
3064.57,0.00
3065.42,0.00
3066.26,43.00
3067.10,10.00
3067.94,42.00
3068.78,43.00
3069.63,10.00
3070.47,-32.00
3071.31,-42.00
3072.14,0.00
3072.98,-11.00
3073.82,22.00
3074.66,11.00
3075.49,-10.00
3076.33,-32.00
3077.17,21.00
3078.00,21.00
3078.83,10.00
3079.67,32.00
3080.50,-11.00
3081.33,21.00
3082.17,-21.00
3083.00,0.00
3083.83,32.00
3084.66,-21.00
3085.49,-53.00
3086.32,21.00
3087.15,74.00
3087.97,11.00
3088.80,0.00
3089.63,-21.00
3090.46,43.00
3091.28,96.00
3092.11,32.00
3092.93,0.00
3093.75,10.00
3094.58,43.00
3095.40,-21.00
3096.22,-11.00
3097.05,0.00
3097.87,53.00
3098.69,63.00
3099.51,74.00
3100.33,85.00
3101.15,21.00
3101.96,11.00
3102.78,21.00
3103.60,0.00
3104.42,-21.00
3105.23,21.00
3106.05,53.00
3106.86,63.00
3107.68,21.00
3108.49,11.00
3109.30,-10.00
3110.12,-11.00
3110.93,32.00
3111.74,64.00
3112.55,32.00
3113.36,0.00
3114.17,42.00
3114.98,42.00
3115.79,53.00
3116.60,53.00
3117.40,0.00
3118.21,0.00
3119.02,0.00
3119.82,32.00
3120.63,-11.00
3121.43,0.00
3122.24,64.00
3123.04,31.00
3123.84,0.00
3124.65,21.00
3125.45,43.00
3126.25,31.00
3127.05,0.00
3127.85,-10.00
3128.65,10.00
3129.45,-10.00
3130.25,0.00
3131.05,0.00
3131.84,-53.00
3132.64,-11.00
3133.44,0.00
3134.23,10.00
3135.03,-32.00
3135.82,-74.00
3136.62,-32.00
3137.41,0.00
3138.20,0.00
3139.00,22.00
3139.79,21.00
3140.58,-52.00
3141.37,-63.00
3142.16,21.00
3142.95,42.00
3143.74,11.00
3144.53,11.00
3145.32,10.00
3146.10,42.00
3146.89,53.00
3147.68,42.00
3148.46,10.00
3149.25,31.00
3150.03,11.00
3150.82,0.00
3151.60,0.00
3152.38,43.00
3153.17,32.00
3153.95,42.00
3154.73,-21.00
3155.51,-21.00
3156.29,31.00
3157.07,53.00
3157.85,0.00
3158.63,-21.00
3159.41,-22.00
3160.18,32.00
3160.96,64.00
3161.74,42.00
3162.51,53.00
3163.29,64.00
3164.06,64.00
3164.84,74.00
3165.61,63.00
3166.38,43.00
3167.16,43.00
3167.93,0.00
3168.70,21.00
3169.47,75.00
3170.24,32.00
3171.01,0.00
3171.78,-21.00
3172.55,-31.00
3173.32,-11.00
3174.09,63.00
3174.85,22.00
3175.62,0.00
3176.39,-32.00
3177.15,-10.00
3177.92,31.00
3178.68,-21.00
3179.45,-42.00
3180.21,-32.00
3180.97,-64.00
3181.73,-43.00
3182.50,-21.00
3183.26,0.00
3184.02,0.00
3184.78,42.00
3185.54,85.00
3186.30,85.00
3187.05,32.00
3187.81,21.00
3188.57,-11.00
3189.33,-32.00
3190.08,0.00
3190.84,32.00
3191.59,31.00
3192.35,10.00
3193.10,0.00
3193.86,0.00
3194.61,53.00
3195.36,22.00
3196.12,21.00
3196.87,42.00
3197.62,64.00
3198.37,64.00
3199.12,64.00
3199.87,64.00
3200.62,21.00
3201.36,21.00
3202.11,32.00
3202.86,-11.00
3203.61,-21.00
3204.35,0.00
3205.10,0.00
3205.84,10.00
3206.59,22.00
3207.33,43.00
3208.08,43.00
3208.82,11.00
3209.56,21.00
3210.30,10.00
3211.05,21.00
3211.79,0.00
3212.53,0.00
3213.27,32.00
3214.01,42.00
3214.75,-32.00
3215.48,-22.00
3216.22,11.00
3216.96,0.00
3217.69,42.00
3218.43,64.00
3219.17,22.00
3219.90,-21.00
3220.64,-10.00
3221.37,42.00
3222.10,106.00
3222.84,74.00
3223.57,84.00
3224.30,32.00
3225.03,0.00
3225.76,21.00
3226.49,-53.00
3227.22,-10.00
3227.95,74.00
3228.68,32.00
3229.41,10.00
3230.14,10.00
3230.87,0.00
3231.59,-21.00
3232.32,0.00
3233.04,11.00
3233.77,10.00
3234.49,0.00
3235.22,10.00
3235.94,-43.00
3236.66,-43.00
3237.39,-43.00
3238.11,-32.00
3238.83,32.00
3239.55,21.00
3240.27,21.00
3240.99,21.00
3241.71,-42.00
3242.43,-21.00
3243.15,53.00
3243.87,21.00
3244.58,75.00
3245.30,21.00
3246.02,-31.00
3246.73,-10.00
3247.45,21.00
3248.16,11.00
3248.88,31.00
3249.59,-11.00
3250.30,-42.00
3251.01,0.00
3251.73,32.00
3252.44,32.00
3253.15,63.00
3253.86,21.00
3254.57,43.00
3255.28,64.00
3255.99,-10.00
3256.70,-64.00
3257.41,-53.00
3258.11,-22.00
3258.82,-21.00
3259.53,-53.00
3260.23,-42.00
3260.94,10.00
3261.64,21.00
3262.35,0.00
3263.05,-11.00
3263.76,-11.00
3264.46,11.00
3265.16,-21.00
3265.86,0.00
3266.56,0.00
3267.26,0.00
3267.97,10.00
3268.67,-53.00
3269.36,-21.00
3270.06,32.00
3270.76,21.00
3271.46,0.00
3272.16,0.00
3272.85,0.00
