RamanShift,Intensity
180.91,220.00
183.74,243.00
186.56,317.00
189.39,423.00
192.21,519.00
195.03,699.00
197.84,911.00
200.66,1292.00
203.47,1546.00
206.28,1854.00
209.09,2086.00
211.89,2403.00
214.70,2552.00
217.50,2701.00
220.30,2880.00
223.10,2954.00
225.89,2869.00
228.69,2922.00
231.48,2976.00
234.27,2954.00
237.05,2997.00
239.84,2965.00
242.62,2849.00
245.40,2775.00
248.18,2785.00
250.96,2859.00
253.73,2880.00
256.51,2817.00
259.28,2944.00
262.05,2796.00
264.81,2700.00
267.58,2764.00
270.34,2785.00
273.10,2795.00
275.86,2848.00
278.61,2827.00
281.37,2732.00
284.12,2721.00
286.87,2701.00
289.62,2742.00
292.36,2764.00
295.11,2774.00
297.85,2827.00
300.59,2901.00
303.33,2891.00
306.06,2870.00
308.80,2807.00
311.53,2869.00
314.26,2901.00
316.99,2828.00
319.71,2743.00
322.44,2827.00
325.16,2827.00
327.88,2827.00
330.59,2774.00
333.31,2732.00
336.02,2785.00
338.73,2806.00
341.44,2701.00
344.15,2701.00
346.86,2754.00
349.56,2764.00
352.26,2827.00
354.96,2753.00
357.66,2732.00
360.35,2711.00
363.05,2785.00
365.74,2828.00
368.43,2838.00
371.12,2848.00
373.80,2732.00
376.48,2785.00
379.17,2891.00
381.85,2880.00
384.52,2796.00
387.20,2849.00
389.87,2849.00
392.54,2816.00
395.21,2849.00
397.88,2955.00
400.55,2933.00
403.21,2859.00
405.87,2806.00
408.53,2764.00
411.19,2891.00
413.84,2933.00
416.50,2965.00
419.15,2986.00
421.80,2848.00
424.45,2828.00
427.10,2806.00
429.74,2700.00
432.38,2764.00
435.02,2848.00
437.66,2806.00
440.30,2806.00
442.93,2785.00
445.56,2785.00
448.19,2901.00
450.82,2933.00
453.45,2933.00
456.07,2849.00
458.70,2785.00
461.32,2848.00
463.94,2880.00
466.55,2965.00
469.17,2933.00
471.78,2796.00
474.39,2785.00
477.00,2806.00
479.61,2806.00
482.22,2721.00
484.82,2785.00
487.42,2922.00
490.02,2860.00
492.62,2848.00
495.21,2880.00
497.81,2817.00
500.40,2743.00
502.99,2785.00
505.58,2816.00
508.17,2806.00
510.75,2827.00
513.33,2775.00
515.91,2711.00
518.49,2817.00
521.07,2848.00
523.65,2796.00
526.22,2870.00
528.79,2891.00
531.36,2753.00
533.93,2701.00
536.49,2743.00
539.06,2764.00
541.62,2806.00
544.18,2795.00
546.74,2774.00
549.30,2775.00
551.85,2753.00
554.40,2774.00
556.95,2806.00
559.50,2848.00
562.05,2700.00
564.59,2616.00
567.14,2594.00
569.68,2605.00
572.22,2701.00
574.76,2679.00
577.29,2647.00
579.83,2679.00
582.36,2689.00
584.89,2637.00
587.42,2605.00
589.95,2594.00
592.47,2605.00
594.99,2531.00
597.52,2446.00
600.04,2467.00
602.55,2541.00
605.07,2584.00
607.58,2616.00
610.09,2626.00
612.60,2552.00
615.11,2552.00
617.62,2615.00
620.12,2552.00
622.63,2456.00
625.13,2488.00
627.63,2467.00
630.13,2478.00
632.62,2510.00
635.12,2436.00
637.61,2563.00
640.10,2584.00
642.59,2530.00
645.07,2509.00
647.56,2573.00
650.04,2510.00
652.52,2435.00
655.00,2425.00
657.48,2457.00
659.96,2456.00
662.43,2446.00
664.90,2394.00
667.37,2404.00
669.84,2467.00
672.31,2552.00
674.78,2404.00
677.24,2362.00
679.70,2415.00
682.16,2362.00
684.62,2351.00
687.08,2383.00
689.53,2457.00
691.98,2531.00
694.43,2489.00
696.88,2414.00
699.33,2319.00
701.78,2330.00
704.22,2404.00
706.66,2361.00
709.10,2362.00
711.54,2329.00
713.98,2277.00
716.42,2361.00
718.85,2341.00
721.28,2340.00
723.71,2308.00
726.14,2394.00
728.57,2457.00
730.99,2425.00
733.41,2404.00
735.83,2436.00
738.25,2488.00
740.67,2351.00
743.09,2287.00
745.50,2202.00
747.91,2161.00
750.33,2213.00
752.73,2277.00
755.14,2288.00
757.55,2171.00
759.95,2149.00
762.35,2149.00
764.75,2213.00
767.15,2256.00
769.55,2256.00
771.95,2075.00
774.34,2012.00
776.73,2149.00
779.12,2214.00
781.51,2203.00
783.90,2170.00
786.28,2086.00
788.67,2107.00
791.05,2170.00
793.43,2108.00
795.80,2108.00
798.18,2160.00
800.56,2160.00
802.93,2139.00
805.30,2128.00
807.67,2075.00
810.04,2012.00
812.40,1991.00
814.77,2001.00
817.13,1980.00
819.49,1928.00
821.85,1937.00
824.21,2012.00
826.57,2033.00
828.92,1959.00
831.27,2022.00
833.63,1981.00
835.98,2001.00
838.32,1938.00
840.67,1843.00
843.01,1895.00
845.36,2001.00
847.70,2001.00
850.04,1991.00
852.37,2001.00
854.71,2023.00
857.05,2054.00
859.38,1928.00
861.71,1811.00
864.04,1832.00
866.37,1853.00
868.69,1874.00
871.02,1874.00
873.34,1875.00
875.66,1842.00
877.98,1885.00
880.30,1863.00
882.62,1991.00
884.93,2012.00
887.24,1938.00
889.55,1896.00
891.86,1853.00
894.17,1874.00
896.48,1874.00
898.78,1822.00
901.09,1885.00
903.39,1874.00
905.69,1768.00
907.99,1748.00
910.28,1758.00
912.58,1843.00
914.87,1854.00
917.16,1789.00
919.45,1810.00
921.74,1800.00
924.03,1800.00
926.31,1769.00
928.60,1736.00
930.88,1822.00
933.16,1790.00
935.44,1737.00
937.72,1747.00
939.99,1769.00
942.26,1769.00
944.54,1747.00
946.81,1768.00
949.08,1683.00
951.34,1695.00
953.61,1758.00
955.87,1726.00
958.14,1726.00
960.40,1854.00
962.66,1843.00
964.92,1748.00
967.17,1683.00
969.43,1673.00
971.68,1716.00
973.93,1768.00
976.18,1652.00
978.43,1631.00
980.68,1715.00
982.92,1673.00
985.17,1620.00
987.41,1610.00
989.65,1567.00
991.89,1599.00
994.12,1620.00
996.36,1588.00
998.59,1588.00
1000.83,1652.00
1003.06,1662.00
1005.29,1599.00
1007.51,1630.00
1009.74,1673.00
1011.97,1620.00
1014.19,1578.00
1016.41,1578.00
1018.63,1588.00
1020.85,1652.00
1023.07,1642.00
1025.28,1641.00
1027.49,1652.00
1029.71,1610.00
1031.92,1599.00
1034.13,1609.00
1036.33,1536.00
1038.54,1567.00
1040.74,1588.00
1042.95,1567.00
1045.15,1567.00
1047.35,1620.00
1049.55,1568.00
1051.74,1557.00
1053.94,1535.00
1056.13,1525.00
1058.32,1472.00
1060.51,1440.00
1062.70,1440.00
1064.89,1535.00
1067.08,1567.00
1069.26,1504.00
1071.44,1514.00
1073.63,1556.00
1075.81,1493.00
1077.98,1514.00
1080.16,1472.00
1082.34,1440.00
1084.51,1472.00
1086.68,1535.00
1088.85,1567.00
1091.02,1514.00
1093.19,1493.00
1095.35,1515.00
1097.52,1514.00
1099.68,1524.00
1101.84,1451.00
1104.00,1430.00
1106.16,1387.00
1108.32,1398.00
1110.48,1429.00
1112.63,1408.00
1114.78,1419.00
1116.93,1451.00
1119.08,1472.00
1121.23,1588.00
1123.38,1589.00
1125.52,1430.00
1127.67,1377.00
1129.81,1398.00
1131.95,1409.00
1134.09,1409.00
1136.22,1398.00
1138.36,1376.00
1140.50,1345.00
1142.63,1388.00
1144.76,1387.00
1146.89,1419.00
1149.02,1324.00
1151.15,1376.00
1153.27,1398.00
1155.40,1323.00
1157.52,1366.00
1159.64,1366.00
1161.76,1335.00
1163.88,1313.00
1165.99,1345.00
1168.11,1366.00
1170.22,1345.00
1172.34,1377.00
1174.45,1408.00
1176.56,1324.00
1178.66,1355.00
1180.77,1366.00
1182.88,1271.00
1184.98,1250.00
1187.08,1313.00
1189.18,1324.00
1191.28,1334.00
1193.38,1335.00
1195.47,1377.00
1197.57,1430.00
1199.66,1303.00
1201.75,1249.00
1203.85,1302.00
1205.93,1355.00
1208.02,1282.00
1210.11,1261.00
1212.19,1281.00
1214.28,1356.00
1216.36,1303.00
1218.44,1239.00
1220.52,1249.00
1222.59,1356.00
1224.67,1387.00
1226.74,1324.00
1228.82,1292.00
1230.89,1323.00
1232.96,1366.00
1235.03,1355.00
1237.10,1196.00
1239.16,1207.00
1241.23,1292.00
1243.29,1281.00
1245.35,1228.00
1247.41,1196.00
1249.47,1281.00
1251.53,1345.00
1253.58,1239.00
1255.64,1165.00
1257.69,1207.00
1259.74,1270.00
1261.79,1302.00
1263.84,1260.00
1265.89,1207.00
1267.93,1217.00
1269.98,1250.00
1272.02,1260.00
1274.06,1165.00
1276.10,1175.00
1278.14,1238.00
1280.18,1281.00
1282.22,1249.00
1284.25,1271.00
1286.28,1271.00
1288.32,1207.00
1290.35,1281.00
1292.38,1260.00
1294.40,1175.00
1296.43,1122.00
1298.46,1069.00
1300.48,1123.00
1302.50,1176.00
1304.52,1175.00
1306.54,1271.00
1308.56,1165.00
1310.58,1154.00
1312.59,1175.00
1314.60,1186.00
1316.62,1176.00
1318.63,1292.00
1320.64,1271.00
1322.65,1186.00
1324.65,1144.00
1326.66,1155.00
1328.66,1175.00
1330.66,1218.00
1332.67,1218.00
1334.67,1186.00
1336.66,1175.00
1338.66,1229.00
1340.66,1239.00
1342.65,1228.00
1344.65,1207.00
1346.64,1176.00
1348.63,1154.00
1350.62,1122.00
1352.60,1144.00
1354.59,1080.00
1356.57,1080.00
1358.56,1102.00
1360.54,1123.00
1362.52,1186.00
1364.50,1122.00
1366.48,1122.00
1368.46,1165.00
1370.43,1112.00
1372.41,1048.00
1374.38,1070.00
1376.35,1101.00
1378.32,1112.00
1380.29,1090.00
1382.25,1059.00
1384.22,1080.00
1386.18,1080.00
1388.15,1144.00
1390.11,1186.00
1392.07,1144.00
1394.03,1080.00
1395.99,1111.00
1397.94,1165.00
1399.90,1186.00
1401.85,996.00
1403.80,1038.00
1405.76,1049.00
1407.71,1091.00
1409.65,1112.00
1411.60,1038.00
1413.55,1091.00
1415.49,1080.00
1417.44,1069.00
1419.38,1133.00
1421.32,1091.00
1423.26,1006.00
1425.19,1006.00
1427.13,1080.00
1429.07,1049.00
1431.00,1006.00
1432.93,1059.00
1434.86,1017.00
1436.79,1027.00
1438.72,1059.00
1440.65,963.00
1442.57,921.00
1444.50,932.00
1446.42,942.00
1448.34,911.00
1450.26,911.00
1452.18,995.00
1454.10,1027.00
1456.02,1059.00
1457.93,1059.00
1459.85,1080.00
1461.76,1049.00
1463.67,1059.00
1465.58,1112.00
1467.49,974.00
1469.40,889.00
1471.31,910.00
1473.21,996.00
1475.11,1059.00
1477.02,1101.00
1478.92,1038.00
1480.82,900.00
1482.72,847.00
1484.61,848.00
1486.51,911.00
1488.40,943.00
1490.30,953.00
1492.19,932.00
1494.08,1006.00
1495.97,974.00
1497.86,995.00
1499.74,953.00
1501.63,943.00
1503.51,932.00
1505.40,974.00
1507.28,974.00
1509.16,890.00
1511.04,922.00
1512.92,890.00
1514.79,878.00
1516.67,974.00
1518.54,922.00
1520.42,953.00
1522.29,954.00
1524.16,964.00
1526.03,953.00
1527.89,974.00
1529.76,910.00
1531.63,879.00
1533.49,922.00
1535.35,890.00
1537.21,815.00
1539.07,847.00
1540.93,942.00
1542.79,910.00
1544.65,911.00
1546.50,922.00
1548.36,900.00
1550.21,922.00
1552.06,922.00
1553.91,910.00
1555.76,889.00
1557.61,868.00
1559.45,868.00
1561.30,890.00
1563.14,890.00
1564.98,858.00
1566.82,869.00
1568.67,890.00
1570.50,890.00
1572.34,869.00
1574.18,900.00
1576.01,889.00
1577.85,815.00
1579.68,847.00
1581.51,804.00
1583.34,763.00
1585.17,848.00
1587.00,858.00
1588.82,826.00
1590.65,794.00
1592.47,763.00
1594.30,847.00
1596.12,784.00
1597.94,773.00
1599.76,869.00
1601.57,837.00
1603.39,794.00
1605.21,762.00
1607.02,741.00
1608.83,784.00
1610.64,836.00
1612.45,847.00
1614.26,826.00
1616.07,794.00
1617.88,784.00
1619.68,805.00
1621.49,805.00
1623.29,741.00
1625.09,709.00
1626.89,763.00
1628.69,773.00
1630.49,752.00
1632.29,730.00
1634.08,751.00
1635.88,720.00
1637.67,762.00
1639.46,783.00
1641.25,795.00
1643.04,847.00
1644.83,773.00
1646.62,752.00
1648.41,752.00
1650.19,688.00
1651.97,720.00
1653.76,731.00
1655.54,720.00
1657.32,709.00
1659.10,710.00
1660.88,709.00
1662.65,752.00
1664.43,699.00
1666.20,677.00
1667.97,741.00
1669.75,794.00
1671.52,698.00
1673.29,741.00
1675.05,699.00
1676.82,688.00
1678.59,720.00
1680.35,720.00
1682.11,667.00
1683.88,699.00
1685.64,731.00
1687.40,720.00
1689.16,741.00
1690.91,678.00
1692.67,688.00
1694.42,752.00
1696.18,741.00
1697.93,730.00
1699.68,677.00
1701.43,677.00
1703.18,731.00
1704.93,741.00
1706.68,667.00
1708.42,657.00
1710.17,720.00
1711.91,689.00
1713.65,656.00
1715.39,624.00
1717.13,677.00
1718.87,699.00
1720.61,656.00
1722.35,603.00
1724.08,656.00
1725.81,646.00
1727.55,615.00
1729.28,625.00
1731.01,699.00
1732.74,656.00
1734.47,635.00
1736.19,667.00
1737.92,646.00
1739.64,603.00
1741.37,677.00
1743.09,636.00
1744.81,561.00
1746.53,603.00
1748.25,571.00
1749.97,593.00
1751.68,593.00
1753.40,624.00
1755.11,625.00
1756.83,625.00
1758.54,625.00
1760.25,593.00
1761.96,583.00
1763.67,604.00
1765.38,593.00
1767.08,593.00
1768.79,624.00
1770.49,636.00
1772.19,593.00
1773.90,593.00
1775.60,625.00
1777.30,603.00
1778.99,593.00
1780.69,593.00
1782.39,646.00
1784.08,657.00
1785.78,583.00
1787.47,593.00
1789.16,572.00
1790.85,530.00
1792.54,572.00
1794.23,551.00
1795.91,593.00
1797.60,615.00
1799.28,540.00
1800.97,550.00
1802.65,635.00
1804.33,572.00
1806.01,551.00
1807.69,593.00
1809.37,615.00
1811.05,593.00
1812.72,625.00
1814.40,636.00
1816.07,582.00
1817.74,582.00
1819.41,561.00
1821.08,487.00
1822.75,518.00
1824.42,604.00
1826.09,593.00
1827.75,572.00
1829.42,551.00
1831.08,519.00
1832.74,518.00
1834.40,541.00
1836.06,550.00
1837.72,529.00
1839.38,508.00
1841.04,487.00
1842.69,551.00
1844.35,562.00
1846.00,593.00
1847.65,530.00
1849.30,487.00
1850.95,497.00
1852.60,540.00
1854.25,562.00
1855.90,540.00
1857.54,572.00
1859.19,551.00
1860.83,466.00
1862.47,445.00
1864.12,498.00
1865.76,477.00
1867.40,519.00
1869.03,530.00
1870.67,593.00
1872.31,497.00
1873.94,487.00
1875.57,444.00
1877.21,445.00
1878.84,445.00
1880.47,455.00
1882.10,519.00
1883.73,540.00
1885.35,487.00
1886.98,529.00
1888.61,498.00
1890.23,444.00
1891.85,445.00
1893.47,434.00
1895.09,444.00
1896.71,423.00
1898.33,498.00
1899.95,540.00
1901.57,519.00
1903.18,508.00
1904.80,498.00
1906.41,476.00
1908.02,476.00
1909.63,508.00
1911.24,561.00
1912.85,519.00
1914.46,498.00
1916.07,519.00
1917.67,466.00
1919.28,466.00
1920.88,540.00
1922.48,498.00
1924.08,424.00
1925.68,455.00
1927.28,487.00
1928.88,434.00
1930.48,434.00
1932.07,456.00
1933.67,435.00
1935.26,444.00
1936.86,424.00
1938.45,413.00
1940.04,424.00
1941.63,423.00
1943.22,434.00
1944.80,435.00
1946.39,466.00
1947.98,465.00
1949.56,424.00
1951.14,466.00
1952.73,424.00
1954.31,424.00
1955.89,434.00
1957.47,424.00
1959.05,424.00
1960.62,466.00
1962.20,403.00
1963.77,423.00
1965.35,423.00
1966.92,445.00
1968.49,402.00
1970.06,381.00
1971.63,339.00
1973.20,402.00
1974.77,402.00
1976.34,402.00
1977.90,392.00
1979.47,434.00
1981.03,466.00
1982.59,445.00
1984.15,423.00
1985.71,445.00
1987.27,476.00
1988.83,455.00
1990.39,413.00
1991.94,350.00
1993.50,382.00
1995.05,423.00
1996.61,423.00
1998.16,382.00
1999.71,403.00
2001.26,424.00
2002.81,434.00
2004.36,370.00
2005.91,444.00
2007.45,466.00
2009.00,444.00
2010.54,424.00
2012.08,392.00
2013.62,403.00
2015.17,392.00
2016.71,424.00
2018.24,445.00
2019.78,402.00
2021.32,371.00
2022.85,349.00
2024.39,360.00
2025.92,413.00
2027.46,403.00
2028.99,402.00
2030.52,392.00
2032.05,434.00
2033.58,402.00
2035.10,381.00
2036.63,423.00
2038.16,423.00
2039.68,382.00
2041.21,339.00
2042.73,392.00
2044.25,424.00
2045.77,402.00
2047.29,435.00
2048.81,445.00
2050.33,424.00
2051.84,360.00
2053.36,360.00
2054.87,381.00
2056.39,371.00
2057.90,360.00
2059.41,350.00
2060.92,402.00
2062.43,392.00
2063.94,392.00
2065.45,381.00
2066.95,371.00
2068.46,413.00
2069.96,402.00
2071.47,371.00
2072.97,360.00
2074.47,381.00
2075.97,360.00
2077.47,339.00
2078.97,318.00
2080.47,350.00
2081.96,371.00
2083.46,339.00
2084.95,381.00
2086.45,360.00
2087.94,328.00
2089.43,307.00
2090.92,265.00
2092.41,275.00
2093.90,329.00
2095.39,329.00
2096.88,307.00
2098.36,349.00
2099.85,381.00
2101.33,403.00
2102.81,361.00
2104.30,349.00
2105.78,381.00
2107.26,370.00
2108.74,350.00
2110.21,307.00
2111.69,265.00
2113.17,243.00
2114.64,297.00
2116.12,317.00
2117.59,339.00
2119.06,360.00
2120.53,339.00
2122.00,339.00
2123.47,317.00
2124.94,307.00
2126.41,297.00
2127.87,296.00
2129.34,349.00
2130.80,318.00
2132.27,339.00
2133.73,307.00
2135.19,254.00
2136.65,307.00
2138.11,275.00
2139.57,265.00
2141.03,297.00
2142.48,254.00
2143.94,275.00
2145.39,308.00
2146.85,328.00
2148.30,307.00
2149.75,318.00
2151.20,318.00
2152.65,339.00
2154.10,318.00
2155.55,296.00
2157.00,286.00
2158.44,286.00
2159.89,243.00
2161.33,286.00
2162.78,307.00
2164.22,307.00
2165.66,254.00
2167.10,296.00
2168.54,360.00
2169.98,318.00
2171.42,275.00
2172.85,254.00
2174.29,264.00
2175.72,265.00
2177.16,265.00
2178.59,307.00
2180.02,275.00
2181.45,233.00
2182.88,254.00
2184.31,286.00
2185.74,275.00
2187.17,265.00
2188.59,307.00
2190.02,307.00
2191.44,318.00
2192.87,339.00
2194.29,339.00
2195.71,275.00
2197.13,265.00
2198.55,275.00
2199.97,254.00
2201.39,286.00
2202.81,296.00
2204.22,286.00
2205.64,265.00
2207.05,275.00
2208.46,296.00
2209.88,318.00
2211.29,296.00
2212.70,254.00
2214.11,264.00
2215.52,254.00
2216.92,233.00
2218.33,212.00
2219.74,243.00
2221.14,254.00
2222.54,265.00
2223.95,254.00
2225.35,233.00
2226.75,307.00
2228.15,307.00
2229.55,275.00
2230.95,223.00
2232.35,212.00
2233.74,233.00
2235.14,265.00
2236.53,265.00
2237.93,254.00
2239.32,286.00
2240.71,296.00
2242.10,233.00
2243.49,265.00
2244.88,254.00
2246.27,233.00
2247.66,212.00
2249.04,265.00
2250.43,296.00
2251.81,276.00
2253.20,275.00
2254.58,264.00
2255.96,212.00
2257.34,233.00
2258.72,191.00
2260.10,201.00
2261.48,190.00
2262.86,170.00
2264.23,180.00
2265.61,170.00
2266.98,169.00
2268.36,191.00
2269.73,222.00
2271.10,233.00
2272.47,190.00
2273.84,212.00
2275.21,244.00
2276.58,243.00
2277.95,211.00
2279.31,191.00
2280.68,180.00
2282.05,191.00
2283.41,212.00
2284.77,202.00
2286.13,244.00
2287.50,201.00
2288.86,191.00
2290.22,243.00
2291.57,254.00
2292.93,222.00
2294.29,191.00
2295.64,222.00
2297.00,212.00
2298.35,212.00
2299.71,243.00
2301.06,286.00
2302.41,254.00
2303.76,212.00
2305.11,212.00
2306.46,212.00
2307.81,243.00
2309.15,223.00
2310.50,233.00
2311.84,212.00
2313.19,233.00
2314.53,212.00
2315.87,212.00
2317.22,223.00
2318.56,233.00
2319.90,202.00
2321.24,180.00
2322.57,232.00
2323.91,276.00
2325.25,244.00
2326.58,233.00
2327.92,233.00
2329.25,190.00
2330.58,201.00
2331.91,211.00
2333.25,233.00
2334.58,265.00
2335.90,297.00
2337.23,201.00
2338.56,180.00
2339.89,212.00
2341.21,191.00
2342.54,190.00
2343.86,244.00
2345.19,255.00
2346.51,233.00
2347.83,233.00
2349.15,223.00
2350.47,180.00
2351.79,190.00
2353.11,254.00
2354.42,233.00
2355.74,159.00
2357.06,169.00
2358.37,180.00
2359.68,222.00
2361.00,232.00
2362.31,212.00
2363.62,190.00
2364.93,222.00
2366.24,222.00
2367.55,222.00
2368.86,180.00
2370.16,180.00
2371.47,191.00
2372.77,190.00
2374.08,170.00
2375.38,159.00
2376.68,169.00
2377.98,169.00
2379.29,202.00
2380.59,201.00
2381.88,254.00
2383.18,191.00
2384.48,180.00
2385.78,180.00
2387.07,180.00
2388.37,233.00
2389.66,286.00
2390.95,211.00
2392.25,190.00
2393.54,159.00
2394.83,138.00
2396.12,170.00
2397.41,180.00
2398.70,201.00
2399.98,223.00
2401.27,212.00
2402.55,158.00
2403.84,159.00
2405.12,201.00
2406.41,191.00
2407.69,190.00
2408.97,137.00
2410.25,180.00
2411.53,190.00
2412.81,169.00
2414.09,190.00
2415.36,169.00
2416.64,170.00
2417.91,169.00
2419.19,170.00
2420.46,127.00
2421.74,127.00
2423.01,137.00
2424.28,169.00
2425.55,212.00
2426.82,211.00
2428.09,159.00
2429.36,170.00
2430.62,191.00
2431.89,170.00
2433.15,169.00
2434.42,180.00
2435.68,169.00
2436.94,190.00
2438.21,170.00
2439.47,180.00
2440.73,191.00
2441.99,191.00
2443.25,169.00
2444.51,159.00
2445.76,170.00
2447.02,169.00
2448.27,169.00
2449.53,159.00
2450.78,169.00
2452.03,116.00
2453.29,116.00
2454.54,159.00
2455.79,169.00
2457.04,190.00
2458.29,180.00
2459.54,159.00
2460.78,169.00
2462.03,170.00
2463.27,201.00
2464.52,169.00
2465.76,170.00
2467.01,116.00
2468.25,159.00
2469.49,191.00
2470.73,170.00
2471.97,159.00
2473.21,170.00
2474.45,106.00
2475.69,169.00
2476.92,148.00
2478.16,95.00
2479.39,127.00
2480.63,106.00
2481.86,127.00
2483.09,137.00
2484.32,169.00
2485.56,159.00
2486.79,180.00
2488.02,201.00
2489.24,149.00
2490.47,169.00
2491.70,159.00
2492.92,127.00
2494.15,159.00
2495.37,159.00
2496.60,159.00
2497.82,169.00
2499.04,158.00
2500.26,148.00
2501.48,148.00
2502.70,180.00
2503.92,149.00
2505.14,202.00
2506.36,190.00
2507.58,169.00
2508.79,169.00
2510.01,127.00
2511.22,148.00
2512.43,127.00
2513.64,148.00
2514.86,180.00
2516.07,138.00
2517.28,148.00
2518.49,127.00
2519.70,127.00
2520.90,169.00
2522.11,148.00
2523.32,85.00
2524.52,95.00
2525.73,106.00
2526.93,84.00
2528.13,106.00
2529.33,85.00
2530.54,105.00
2531.74,148.00
2532.94,158.00
2534.14,148.00
2535.33,159.00
2536.53,116.00
2537.73,148.00
2538.92,137.00
2540.12,137.00
2541.31,180.00
2542.51,149.00
2543.70,190.00
2544.89,159.00
2546.08,106.00
2547.27,116.00
2548.46,148.00
2549.65,169.00
2550.84,169.00
2552.03,170.00
2553.21,116.00
2554.40,106.00
2555.58,74.00
2556.77,96.00
2557.95,85.00
2559.13,64.00
2560.31,106.00
2561.50,116.00
2562.68,106.00
2563.85,106.00
2565.03,84.00
2566.21,106.00
2567.39,85.00
2568.56,95.00
2569.74,127.00
2570.91,127.00
2572.09,106.00
2573.26,106.00
2574.43,74.00
2575.61,127.00
2576.78,169.00
2577.95,85.00
2579.12,85.00
2580.29,106.00
2581.45,85.00
2582.62,106.00
2583.79,84.00
2584.95,127.00
2586.12,106.00
2587.28,106.00
2588.44,127.00
2589.61,127.00
2590.77,128.00
2591.93,85.00
2593.09,148.00
2594.25,106.00
2595.41,96.00
2596.56,138.00
2597.72,127.00
2598.88,85.00
2600.03,117.00
2601.19,149.00
2602.34,116.00
2603.50,95.00
2604.65,74.00
2605.80,84.00
2606.95,74.00
2608.10,64.00
2609.25,85.00
2610.40,116.00
2611.55,116.00
2612.70,127.00
2613.84,116.00
2614.99,106.00
2616.13,106.00
2617.28,148.00
2618.42,137.00
2619.56,85.00
2620.71,116.00
2621.85,148.00
2622.99,116.00
2624.13,106.00
2625.27,127.00
2626.40,84.00
2627.54,85.00
2628.68,95.00
2629.81,127.00
2630.95,105.00
2632.08,95.00
2633.22,148.00
2634.35,84.00
2635.48,63.00
2636.61,84.00
2637.74,84.00
2638.87,84.00
2640.00,53.00
2641.13,42.00
2642.26,117.00
2643.39,127.00
2644.51,85.00
2645.64,148.00
2646.76,127.00
2647.89,106.00
2649.01,106.00
2650.13,127.00
2651.25,127.00
2652.38,96.00
2653.50,106.00
2654.62,137.00
2655.73,137.00
2656.85,127.00
2657.97,106.00
2659.09,117.00
2660.20,95.00
2661.32,85.00
2662.43,106.00
2663.55,106.00
2664.66,138.00
2665.77,106.00
2666.88,64.00
2667.99,106.00
2669.10,106.00
2670.21,106.00
2671.32,106.00
2672.43,106.00
2673.54,127.00
2674.64,127.00
2675.75,117.00
2676.85,85.00
2677.96,74.00
2679.06,105.00
2680.16,84.00
2681.26,63.00
2682.37,116.00
2683.47,170.00
2684.57,127.00
2685.66,137.00
2686.76,158.00
2687.86,137.00
2688.96,106.00
2690.05,52.00
2691.15,74.00
2692.24,95.00
2693.34,85.00
2694.43,63.00
2695.52,75.00
2696.62,117.00
2697.71,127.00
2698.80,106.00
2699.89,105.00
2700.98,63.00
2702.06,106.00
2703.15,170.00
2704.24,127.00
2705.32,53.00
2706.41,64.00
2707.49,106.00
2708.58,74.00
2709.66,0.00
2710.74,42.00
2711.83,63.00
2712.91,63.00
2713.99,43.00
2715.07,105.00
2716.15,95.00
2717.22,52.00
2718.30,11.00
2719.38,52.00
2720.45,52.00
2721.53,106.00
2722.60,137.00
2723.68,95.00
2724.75,106.00
2725.82,84.00
2726.89,75.00
2727.97,95.00
2729.04,84.00
2730.11,22.00
2731.17,21.00
2732.24,11.00
2733.31,21.00
2734.38,63.00
2735.44,75.00
2736.51,10.00
2737.57,0.00
2738.64,11.00
2739.70,95.00
2740.76,96.00
2741.82,64.00
2742.89,53.00
2743.95,138.00
2745.01,106.00
2746.07,127.00
2747.12,148.00
2748.18,106.00
2749.24,74.00
2750.29,85.00
2751.35,63.00
2752.40,21.00
2753.46,21.00
2754.51,64.00
2755.57,106.00
2756.62,42.00
2757.67,10.00
2758.72,32.00
2759.77,74.00
2760.82,53.00
2761.87,53.00
2762.91,63.00
2763.96,95.00
2765.01,127.00
2766.05,21.00
2767.10,42.00
2768.14,64.00
2769.19,85.00
2770.23,85.00
2771.27,64.00
2772.31,21.00
2773.35,74.00
2774.40,42.00
2775.43,53.00
2776.47,43.00
2777.51,53.00
2778.55,127.00
2779.59,75.00
2780.62,21.00
2781.66,53.00
2782.69,84.00
2783.73,21.00
2784.76,-11.00
2785.79,32.00
2786.82,95.00
2787.85,96.00
2788.89,96.00
2789.92,63.00
2790.94,43.00
2791.97,42.00
2793.00,63.00
2794.03,42.00
2795.05,64.00
2796.08,85.00
2797.11,53.00
2798.13,63.00
2799.15,63.00
2800.18,85.00
2801.20,84.00
2802.22,84.00
2803.24,74.00
2804.26,43.00
2805.28,85.00
2806.30,116.00
2807.32,43.00
2808.34,63.00
2809.35,106.00
2810.37,53.00
2811.39,21.00
2812.40,32.00
2813.41,10.00
2814.43,53.00
2815.44,21.00
2816.45,32.00
2817.46,42.00
2818.48,75.00
2819.49,64.00
2820.49,42.00
2821.50,63.00
2822.51,43.00
2823.52,22.00
2824.53,64.00
2825.53,43.00
2826.54,21.00
2827.54,96.00
2828.55,127.00
2829.55,42.00
2830.55,-11.00
2831.55,63.00
2832.56,63.00
2833.56,63.00
2834.56,74.00
2835.56,96.00
2836.56,53.00
2837.55,42.00
2838.55,127.00
2839.55,127.00
2840.54,84.00
2841.54,96.00
2842.53,127.00
2843.53,53.00
2844.52,96.00
2845.51,21.00
2846.51,42.00
2847.50,85.00
2848.49,85.00
2849.48,85.00
2850.47,74.00
2851.46,11.00
2852.45,63.00
2853.43,74.00
2854.42,42.00
2855.41,11.00
2856.39,42.00
2857.38,43.00
2858.36,64.00
2859.34,21.00
2860.33,32.00
2861.31,32.00
2862.29,64.00
2863.27,32.00
2864.25,64.00
2865.23,74.00
2866.21,85.00
2867.19,42.00
2868.17,21.00
2869.14,0.00
2870.12,64.00
2871.09,106.00
2872.07,85.00
2873.04,85.00
2874.02,53.00
2874.99,53.00
2875.96,0.00
2876.93,21.00
2877.91,85.00
2878.88,64.00
2879.85,64.00
2880.82,106.00
2881.78,84.00
2882.75,42.00
2883.72,64.00
2884.69,85.00
2885.65,106.00
2886.62,31.00
2887.58,53.00
2888.55,85.00
2889.51,74.00
2890.47,63.00
2891.43,63.00
2892.39,84.00
2893.36,32.00
2894.31,43.00
2895.27,0.00
2896.23,31.00
2897.19,85.00
2898.15,32.00
2899.11,21.00
2900.06,42.00
2901.02,85.00
2901.97,64.00
2902.93,42.00
2903.88,64.00
2904.83,85.00
2905.79,22.00
2906.74,-11.00
2907.69,-21.00
2908.64,21.00
2909.59,85.00
2910.54,64.00
2911.49,22.00
2912.43,11.00
2913.38,117.00
2914.33,127.00
2915.27,42.00
2916.22,10.00
2917.16,10.00
2918.11,53.00
2919.05,64.00
2919.99,53.00
2920.94,53.00
2921.88,32.00
2922.82,53.00
2923.76,75.00
2924.70,63.00
2925.64,85.00
2926.58,22.00
2927.51,11.00
2928.45,32.00
2929.39,96.00
2930.32,22.00
2931.26,43.00
2932.19,53.00
2933.13,31.00
2934.06,-10.00
2934.99,-42.00
2935.92,21.00
2936.86,96.00
2937.79,106.00
2938.72,74.00
2939.65,85.00
2940.57,85.00
2941.50,43.00
2942.43,64.00
2943.36,95.00
2944.28,32.00
2945.21,21.00
2946.13,43.00
2947.06,43.00
2947.98,-11.00
2948.91,0.00
2949.83,63.00
2950.75,53.00
2951.67,52.00
2952.59,43.00
2953.51,32.00
2954.43,43.00
2955.35,21.00
2956.27,74.00
2957.19,32.00
2958.10,42.00
2959.02,74.00
2959.94,42.00
2960.85,64.00
2961.77,53.00
2962.68,0.00
2963.59,31.00
2964.51,32.00
2965.42,21.00
2966.33,21.00
2967.24,106.00
2968.15,75.00
2969.06,21.00
2969.97,10.00
2970.88,11.00
2971.78,0.00
2972.69,63.00
2973.60,32.00
2974.50,-32.00
2975.41,-53.00
2976.31,0.00
2977.22,42.00
2978.12,53.00
2979.02,0.00
2979.93,21.00
2980.83,11.00
2981.73,-21.00
2982.63,0.00
2983.53,32.00
2984.43,21.00
2985.33,32.00
2986.22,63.00
2987.12,85.00
2988.02,64.00
2988.91,0.00
2989.81,52.00
2990.70,53.00
2991.60,64.00
2992.49,43.00
2993.38,10.00
2994.28,21.00
2995.17,32.00
2996.06,74.00
2996.95,74.00
2997.84,31.00
2998.73,53.00
2999.62,32.00
3000.51,42.00
3001.40,32.00
3002.28,0.00
3003.17,-21.00
3004.05,-10.00
3004.94,21.00
3005.82,-21.00
3006.71,0.00
3007.59,42.00
3008.47,42.00
3009.36,85.00
3010.24,75.00
3011.12,85.00
3012.00,74.00
3012.88,22.00
3013.76,53.00
3014.64,74.00
3015.51,84.00
3016.39,42.00
3017.27,31.00
3018.14,43.00
3019.02,53.00
3019.89,0.00
3020.77,21.00
3021.64,43.00
3022.52,64.00
3023.39,84.00
3024.26,63.00
3025.13,64.00
3026.00,64.00
3026.87,64.00
3027.74,42.00
3028.61,53.00
3029.48,75.00
3030.35,53.00
3031.21,21.00
3032.08,21.00
3032.95,-11.00
3033.81,0.00
3034.68,32.00
3035.54,42.00
3036.40,0.00
3037.27,0.00
3038.13,64.00
3038.99,74.00
3039.85,21.00
3040.71,53.00
3041.57,74.00
3042.43,32.00
3043.29,42.00
3044.15,32.00
3045.01,-11.00
3045.86,0.00
3046.72,11.00
3047.58,53.00
3048.43,21.00
3049.29,0.00
3050.14,0.00
3050.99,21.00
3051.85,-11.00
3052.70,11.00
3053.55,21.00
3054.40,43.00
3055.25,11.00
3056.10,11.00
3056.95,85.00
3057.80,63.00
3058.65,42.00
3059.50,-21.00
3060.34,21.00
3061.19,75.00
3062.04,42.00
3062.88,21.00
3063.73,53.00
3064.57,42.00
3065.42,-11.00
3066.26,0.00
3067.10,0.00
3067.94,10.00
3068.78,42.00
3069.63,22.00
3070.47,42.00
3071.31,74.00
3072.14,43.00
3072.98,85.00
3073.82,85.00
3074.66,11.00
3075.49,21.00
3076.33,53.00
3077.17,63.00
3078.00,53.00
3078.83,21.00
3079.67,11.00
3080.50,64.00
3081.33,42.00
3082.17,63.00
3083.00,32.00
3083.83,85.00
3084.66,21.00
3085.49,32.00
3086.32,53.00
3087.15,11.00
3087.97,21.00
3088.80,0.00
3089.63,11.00
3090.46,21.00
3091.28,-21.00
3092.11,53.00
3092.93,63.00
3093.75,74.00
3094.58,53.00
3095.40,21.00
3096.22,21.00
3097.05,0.00
3097.87,-32.00
3098.69,21.00
3099.51,0.00
3100.33,-21.00
3101.15,0.00
3101.96,21.00
3102.78,11.00
3103.60,11.00
3104.42,74.00
3105.23,63.00
3106.05,-10.00
3106.86,11.00
3107.68,53.00
3108.49,32.00
3109.30,-21.00
3110.12,-43.00
3110.93,-43.00
3111.74,21.00
3112.55,10.00
3113.36,-32.00
3114.17,0.00
3114.98,-21.00
3115.79,-64.00
3116.60,-32.00
3117.40,0.00
3118.21,11.00
3119.02,-11.00
3119.82,53.00
3120.63,53.00
3121.43,42.00
3122.24,43.00
3123.04,64.00
3123.84,11.00
3124.65,0.00
3125.45,64.00
3126.25,32.00
3127.05,-21.00
3127.85,53.00
3128.65,85.00
3129.45,42.00
3130.25,21.00
3131.05,-10.00
3131.84,21.00
3132.64,64.00
3133.44,85.00
3134.23,32.00
3135.03,-11.00
3135.82,0.00
3136.62,21.00
3137.41,42.00
3138.20,21.00
3139.00,75.00
3139.79,53.00
3140.58,-11.00
3141.37,11.00
3142.16,0.00
3142.95,0.00
3143.74,-10.00
3144.53,-11.00
3145.32,-21.00
3146.10,0.00
3146.89,64.00
3147.68,64.00
3148.46,43.00
3149.25,10.00
3150.03,-53.00
3150.82,11.00
3151.60,42.00
3152.38,-11.00
3153.17,21.00
3153.95,42.00
3154.73,11.00
3155.51,0.00
3156.29,11.00
3157.07,11.00
3157.85,21.00
3158.63,0.00
3159.41,0.00
3160.18,22.00
3160.96,-32.00
3161.74,-10.00
3162.51,21.00
3163.29,42.00
3164.06,21.00
3164.84,-42.00
3165.61,11.00
3166.38,0.00
3167.16,-42.00
3167.93,-42.00
3168.70,-21.00
3169.47,-10.00
3170.24,10.00
3171.01,75.00
3171.78,42.00
3172.55,42.00
3173.32,85.00
3174.09,43.00
3174.85,42.00
3175.62,21.00
3176.39,0.00
3177.15,21.00
3177.92,63.00
3178.68,64.00
3179.45,84.00
3180.21,74.00
3180.97,84.00
3181.73,43.00
3182.50,42.00
3183.26,53.00
3184.02,-21.00
3184.78,0.00
3185.54,74.00
3186.30,-11.00
3187.05,-32.00
3187.81,0.00
3188.57,63.00
3189.33,64.00
3190.08,-10.00
3190.84,0.00
3191.59,21.00
3192.35,42.00
3193.10,-10.00
3193.86,-21.00
3194.61,53.00
3195.36,64.00
3196.12,10.00
3196.87,0.00
3197.62,0.00
3198.37,21.00
3199.12,0.00
3199.87,-32.00
3200.62,11.00
3201.36,32.00
3202.11,64.00
3202.86,32.00
3203.61,42.00
3204.35,0.00
3205.10,0.00
3205.84,43.00
3206.59,0.00
3207.33,10.00
3208.08,0.00
3208.82,0.00
3209.56,32.00
3210.30,-10.00
3211.05,-42.00
3211.79,32.00
3212.53,64.00
3213.27,21.00
3214.01,10.00
3214.75,22.00
3215.48,-42.00
3216.22,21.00
3216.96,74.00
3217.69,64.00
3218.43,22.00
3219.17,-10.00
3219.90,53.00
3220.64,95.00
3221.37,11.00
3222.10,21.00
3222.84,63.00
3223.57,0.00
3224.30,-10.00
3225.03,53.00
3225.76,85.00
3226.49,64.00
3227.22,11.00
3227.95,-11.00
3228.68,-21.00
3229.41,10.00
3230.14,53.00
3230.87,21.00
3231.59,21.00
3232.32,42.00
3233.04,43.00
3233.77,-21.00
3234.49,21.00
3235.22,64.00
3235.94,-22.00
3236.66,-21.00
3237.39,-11.00
3238.11,-21.00
3238.83,-21.00
3239.55,32.00
3240.27,53.00
3240.99,22.00
3241.71,42.00
3242.43,32.00
3243.15,32.00
3243.87,53.00
3244.58,85.00
3245.30,10.00
3246.02,42.00
3246.73,42.00
3247.45,22.00
3248.16,0.00
3248.88,32.00
3249.59,10.00
3250.30,-11.00
3251.01,0.00
3251.73,0.00
3252.44,21.00
3253.15,42.00
3253.86,85.00
3254.57,74.00
3255.28,10.00
3255.99,31.00
3256.70,31.00
3257.41,32.00
3258.11,96.00
3258.82,85.00
3259.53,0.00
3260.23,0.00
3260.94,0.00
3261.64,21.00
3262.35,0.00
3263.05,32.00
3263.76,74.00
3264.46,85.00
3265.16,32.00
3265.86,-21.00
3266.56,10.00
3267.26,53.00
3267.97,53.00
3268.67,53.00
3269.36,-21.00
3270.06,-10.00
3270.76,43.00
3271.46,85.00
3272.16,0.00
3272.85,0.00
