RamanShift,Intensity
180.91,257.00
183.74,317.00
186.56,424.00
189.39,593.00
192.21,784.00
195.03,1133.00
197.84,1684.00
200.66,2341.00
203.47,3029.00
206.28,3664.00
209.09,4204.00
211.89,4734.00
214.70,5178.00
217.50,5453.00
220.30,5719.00
223.10,5940.00
225.89,6184.00
228.69,6386.00
231.48,6470.00
234.27,6480.00
237.05,6597.00
239.84,6608.00
242.62,6438.00
245.40,6322.00
248.18,6301.00
250.96,6163.00
253.73,6036.00
256.51,6036.00
259.28,5962.00
262.05,5898.00
264.81,5909.00
267.58,5750.00
270.34,5644.00
273.10,5697.00
275.86,5623.00
278.61,5549.00
281.37,5454.00
284.12,5368.00
286.87,5507.00
289.62,5475.00
292.36,5528.00
295.11,5591.00
297.85,5496.00
300.59,5633.00
303.33,5655.00
306.06,5581.00
308.80,5623.00
311.53,5665.00
314.26,5517.00
316.99,5401.00
319.71,5411.00
322.44,5496.00
325.16,5443.00
327.88,5390.00
330.59,5432.00
333.31,5422.00
336.02,5412.00
338.73,5401.00
341.44,5337.00
344.15,5421.00
346.86,5432.00
349.56,5358.00
352.26,5327.00
354.96,5327.00
357.66,5422.00
360.35,5411.00
363.05,5655.00
365.74,5729.00
368.43,5496.00
371.12,5401.00
373.80,5496.00
376.48,5538.00
379.17,5623.00
381.85,5654.00
384.52,5697.00
387.20,5740.00
389.87,5728.00
392.54,5665.00
395.21,5591.00
397.88,5580.00
400.55,5644.00
403.21,5739.00
405.87,5729.00
408.53,5697.00
411.19,5686.00
413.84,5739.00
416.50,5623.00
419.15,5612.00
421.80,5644.00
424.45,5718.00
427.10,5665.00
429.74,5612.00
432.38,5633.00
435.02,5591.00
437.66,5580.00
440.30,5549.00
442.93,5538.00
445.56,5527.00
448.19,5644.00
450.82,5580.00
453.45,5559.00
456.07,5665.00
458.70,5655.00
461.32,5686.00
463.94,5675.00
466.55,5613.00
469.17,5665.00
471.78,5601.00
474.39,5549.00
477.00,5623.00
479.61,5760.00
482.22,5697.00
484.82,5581.00
487.42,5591.00
490.02,5570.00
492.62,5634.00
495.21,5644.00
497.81,5623.00
500.40,5581.00
502.99,5665.00
505.58,5570.00
508.17,5538.00
510.75,5549.00
513.33,5654.00
515.91,5634.00
518.49,5539.00
521.07,5560.00
523.65,5527.00
526.22,5411.00
528.79,5369.00
531.36,5433.00
533.93,5517.00
536.49,5464.00
539.06,5517.00
541.62,5559.00
544.18,5475.00
546.74,5475.00
549.30,5442.00
551.85,5422.00
554.40,5411.00
556.95,5485.00
559.50,5548.00
562.05,5454.00
564.59,5359.00
567.14,5401.00
569.68,5305.00
572.22,5284.00
574.76,5422.00
577.29,5475.00
579.83,5411.00
582.36,5379.00
584.89,5294.00
587.42,5231.00
589.95,5274.00
592.47,5241.00
594.99,5263.00
597.52,5252.00
600.04,5167.00
602.55,5136.00
605.07,5199.00
607.58,5263.00
610.09,5294.00
612.60,5295.00
615.11,5189.00
617.62,5147.00
620.12,5146.00
622.63,5125.00
625.13,5115.00
627.63,5104.00
630.13,5104.00
632.62,5093.00
635.12,5019.00
637.61,4987.00
640.10,5083.00
642.59,5020.00
645.07,4967.00
647.56,4893.00
650.04,4935.00
652.52,4967.00
655.00,5029.00
657.48,4967.00
659.96,4818.00
662.43,4797.00
664.90,4797.00
667.37,4829.00
669.84,4840.00
672.31,4828.00
674.78,4934.00
677.24,4871.00
679.70,4871.00
682.16,4849.00
684.62,4787.00
687.08,4829.00
689.53,4881.00
691.98,4797.00
694.43,4839.00
696.88,4818.00
699.33,4680.00
701.78,4734.00
704.22,4702.00
706.66,4648.00
709.10,4638.00
711.54,4723.00
713.98,4649.00
716.42,4617.00
718.85,4765.00
721.28,4903.00
723.71,4924.00
726.14,4956.00
728.57,5019.00
730.99,5147.00
733.41,5136.00
735.83,5041.00
738.25,4956.00
740.67,4861.00
743.09,4670.00
745.50,4553.00
747.91,4489.00
750.33,4521.00
752.73,4575.00
755.14,4532.00
757.55,4468.00
759.95,4416.00
762.35,4416.00
764.75,4458.00
767.15,4458.00
769.55,4437.00
771.95,4416.00
774.34,4437.00
776.73,4415.00
779.12,4469.00
781.51,4447.00
783.90,4278.00
786.28,4331.00
788.67,4352.00
791.05,4310.00
793.43,4246.00
795.80,4279.00
798.18,4394.00
800.56,4405.00
802.93,4363.00
805.30,4321.00
807.67,4267.00
810.04,4247.00
812.40,4363.00
814.77,4310.00
817.13,4162.00
819.49,4183.00
821.85,4215.00
824.21,4141.00
826.57,4098.00
828.92,4056.00
831.27,4067.00
833.63,4055.00
835.98,4056.00
838.32,4056.00
840.67,3992.00
843.01,4003.00
845.36,4013.00
847.70,4045.00
850.04,4119.00
852.37,4045.00
854.71,4003.00
857.05,3992.00
859.38,3960.00
861.71,3992.00
864.04,3918.00
866.37,3950.00
868.69,3971.00
871.02,3918.00
873.34,3971.00
875.66,3981.00
877.98,3897.00
880.30,3844.00
882.62,3886.00
884.93,3897.00
887.24,3865.00
889.55,3929.00
891.86,3897.00
894.17,3823.00
896.48,3823.00
898.78,3875.00
901.09,3812.00
903.39,3748.00
905.69,3770.00
907.99,3738.00
910.28,3717.00
912.58,3675.00
914.87,3770.00
917.16,3812.00
919.45,3738.00
921.74,3706.00
924.03,3728.00
926.31,3738.00
928.60,3696.00
930.88,3728.00
933.16,3675.00
935.44,3717.00
937.72,3759.00
939.99,3727.00
942.26,3664.00
944.54,3568.00
946.81,3643.00
949.08,3621.00
951.34,3600.00
953.61,3643.00
955.87,3653.00
958.14,3653.00
960.40,3579.00
962.66,3537.00
964.92,3569.00
967.17,3547.00
969.43,3536.00
971.68,3579.00
973.93,3547.00
976.18,3463.00
978.43,3463.00
980.68,3442.00
982.92,3420.00
985.17,3442.00
987.41,3505.00
989.65,3431.00
991.89,3250.00
994.12,3283.00
996.36,3293.00
998.59,3357.00
1000.83,3356.00
1003.06,3420.00
1005.29,3399.00
1007.51,3335.00
1009.74,3347.00
1011.97,3356.00
1014.19,3315.00
1016.41,3378.00
1018.63,3400.00
1020.85,3357.00
1023.07,3314.00
1025.28,3356.00
1027.49,3378.00
1029.71,3314.00
1031.92,3304.00
1034.13,3293.00
1036.33,3304.00
1038.54,3272.00
1040.74,3229.00
1042.95,3261.00
1045.15,3251.00
1047.35,3230.00
1049.55,3251.00
1051.74,3262.00
1053.94,3219.00
1056.13,3167.00
1058.32,3103.00
1060.51,3145.00
1062.70,3177.00
1064.89,3166.00
1067.08,3145.00
1069.26,3251.00
1071.44,3314.00
1073.63,3209.00
1075.81,3166.00
1077.98,3145.00
1080.16,3102.00
1082.34,3166.00
1084.51,3113.00
1086.68,3082.00
1088.85,3124.00
1091.02,3135.00
1093.19,3145.00
1095.35,2997.00
1097.52,2996.00
1099.68,3071.00
1101.84,3050.00
1104.00,2997.00
1106.16,2923.00
1108.32,2902.00
1110.48,2965.00
1112.63,2922.00
1114.78,2944.00
1116.93,3007.00
1119.08,2997.00
1121.23,2997.00
1123.38,2944.00
1125.52,2923.00
1127.67,2859.00
1129.81,2933.00
1131.95,3008.00
1134.09,2976.00
1136.22,2901.00
1138.36,2848.00
1140.50,2870.00
1142.63,2922.00
1144.76,2965.00
1146.89,2869.00
1149.02,2859.00
1151.15,2859.00
1153.27,2796.00
1155.40,2785.00
1157.52,2859.00
1159.64,2838.00
1161.76,2732.00
1163.88,2796.00
1165.99,2774.00
1168.11,2785.00
1170.22,2806.00
1172.34,2827.00
1174.45,2922.00
1176.56,2891.00
1178.66,2838.00
1180.77,2775.00
1182.88,2753.00
1184.98,2774.00
1187.08,2774.00
1189.18,2784.00
1191.28,2795.00
1193.38,2763.00
1195.47,2690.00
1197.57,2626.00
1199.66,2732.00
1201.75,2743.00
1203.85,2743.00
1205.93,2806.00
1208.02,2785.00
1210.11,2838.00
1212.19,2764.00
1214.28,2669.00
1216.36,2605.00
1218.44,2647.00
1220.52,2700.00
1222.59,2732.00
1224.67,2764.00
1226.74,2722.00
1228.82,2700.00
1230.89,2700.00
1232.96,2668.00
1235.03,2722.00
1237.10,2742.00
1239.16,2721.00
1241.23,2711.00
1243.29,2679.00
1245.35,2552.00
1247.41,2562.00
1249.47,2605.00
1251.53,2615.00
1253.58,2615.00
1255.64,2616.00
1257.69,2626.00
1259.74,2594.00
1261.79,2530.00
1263.84,2488.00
1265.89,2563.00
1267.93,2616.00
1269.98,2488.00
1272.02,2467.00
1274.06,2509.00
1276.10,2573.00
1278.14,2573.00
1280.18,2489.00
1282.22,2467.00
1284.25,2499.00
1286.28,2477.00
1288.32,2468.00
1290.35,2446.00
1292.38,2436.00
1294.40,2489.00
1296.43,2436.00
1298.46,2467.00
1300.48,2488.00
1302.50,2457.00
1304.52,2509.00
1306.54,2478.00
1308.56,2414.00
1310.58,2361.00
1312.59,2383.00
1314.60,2467.00
1316.62,2478.00
1318.63,2509.00
1320.64,2541.00
1322.65,2563.00
1324.65,2615.00
1326.66,2637.00
1328.66,2690.00
1330.66,2689.00
1332.67,2658.00
1334.67,2616.00
1336.66,2574.00
1338.66,2542.00
1340.66,2563.00
1342.65,2552.00
1344.65,2499.00
1346.64,2435.00
1348.63,2457.00
1350.62,2425.00
1352.60,2372.00
1354.59,2382.00
1356.57,2383.00
1358.56,2362.00
1360.54,2256.00
1362.52,2309.00
1364.50,2330.00
1366.48,2340.00
1368.46,2319.00
1370.43,2276.00
1372.41,2245.00
1374.38,2351.00
1376.35,2372.00
1378.32,2319.00
1380.29,2277.00
1382.25,2309.00
1384.22,2224.00
1386.18,2245.00
1388.15,2351.00
1390.11,2319.00
1392.07,2287.00
1394.03,2224.00
1395.99,2224.00
1397.94,2288.00
1399.90,2266.00
1401.85,2245.00
1403.80,2298.00
1405.76,2277.00
1407.71,2235.00
1409.65,2245.00
1411.60,2182.00
1413.55,2096.00
1415.49,2149.00
1417.44,2139.00
1419.38,2203.00
1421.32,2203.00
1423.26,2150.00
1425.19,2097.00
1427.13,2065.00
1429.07,2033.00
1431.00,2076.00
1432.93,2086.00
1434.86,2097.00
1436.79,2076.00
1438.72,2160.00
1440.65,2182.00
1442.57,2055.00
1444.50,1949.00
1446.42,2033.00
1448.34,2139.00
1450.26,2118.00
1452.18,2075.00
1454.10,2033.00
1456.02,2012.00
1457.93,2075.00
1459.85,2129.00
1461.76,2118.00
1463.67,1959.00
1465.58,1916.00
1467.49,1928.00
1469.40,1970.00
1471.31,2034.00
1473.21,2107.00
1475.11,2044.00
1477.02,2044.00
1478.92,2022.00
1480.82,2044.00
1482.72,2022.00
1484.61,2012.00
1486.51,2012.00
1488.40,1938.00
1490.30,1906.00
1492.19,1938.00
1494.08,1875.00
1495.97,1885.00
1497.86,1958.00
1499.74,1990.00
1501.63,2002.00
1503.51,1927.00
1505.40,1959.00
1507.28,1980.00
1509.16,1906.00
1511.04,1863.00
1512.92,1927.00
1514.79,1991.00
1516.67,1948.00
1518.54,1895.00
1520.42,1917.00
1522.29,2001.00
1524.16,1927.00
1526.03,1938.00
1527.89,1949.00
1529.76,1959.00
1531.63,1959.00
1533.49,1928.00
1535.35,1821.00
1537.21,1864.00
1539.07,1928.00
1540.93,1885.00
1542.79,1853.00
1544.65,1832.00
1546.50,1853.00
1548.36,1895.00
1550.21,1853.00
1552.06,1863.00
1553.91,1800.00
1555.76,1737.00
1557.61,1789.00
1559.45,1822.00
1561.30,1779.00
1563.14,1779.00
1564.98,1864.00
1566.82,1843.00
1568.67,1832.00
1570.50,1821.00
1572.34,1769.00
1574.18,1758.00
1576.01,1801.00
1577.85,1800.00
1579.68,1768.00
1581.51,1758.00
1583.34,1768.00
1585.17,1748.00
1587.00,1695.00
1588.82,1716.00
1590.65,1789.00
1592.47,1779.00
1594.30,1641.00
1596.12,1652.00
1597.94,1673.00
1599.76,1683.00
1601.57,1652.00
1603.39,1641.00
1605.21,1631.00
1607.02,1652.00
1608.83,1641.00
1610.64,1631.00
1612.45,1610.00
1614.26,1631.00
1616.07,1621.00
1617.88,1482.00
1619.68,1535.00
1621.49,1589.00
1623.29,1610.00
1625.09,1609.00
1626.89,1620.00
1628.69,1652.00
1630.49,1599.00
1632.29,1525.00
1634.08,1546.00
1635.88,1568.00
1637.67,1536.00
1639.46,1578.00
1641.25,1589.00
1643.04,1525.00
1644.83,1588.00
1646.62,1556.00
1648.41,1503.00
1650.19,1525.00
1651.97,1589.00
1653.76,1589.00
1655.54,1610.00
1657.32,1588.00
1659.10,1567.00
1660.88,1589.00
1662.65,1536.00
1664.43,1589.00
1666.20,1546.00
1667.97,1440.00
1669.75,1461.00
1671.52,1472.00
1673.29,1546.00
1675.05,1578.00
1676.82,1525.00
1678.59,1493.00
1680.35,1483.00
1682.11,1440.00
1683.88,1377.00
1685.64,1408.00
1687.40,1461.00
1689.16,1504.00
1690.91,1440.00
1692.67,1461.00
1694.42,1440.00
1696.18,1419.00
1697.93,1408.00
1699.68,1377.00
1701.43,1419.00
1703.18,1397.00
1704.93,1323.00
1706.68,1313.00
1708.42,1281.00
1710.17,1292.00
1711.91,1345.00
1713.65,1324.00
1715.39,1419.00
1717.13,1397.00
1718.87,1313.00
1720.61,1313.00
1722.35,1271.00
1724.08,1281.00
1725.81,1281.00
1727.55,1281.00
1729.28,1292.00
1731.01,1313.00
1732.74,1398.00
1734.47,1303.00
1736.19,1313.00
1737.92,1324.00
1739.64,1313.00
1741.37,1291.00
1743.09,1292.00
1744.81,1335.00
1746.53,1345.00
1748.25,1292.00
1749.97,1302.00
1751.68,1271.00
1753.40,1228.00
1755.11,1292.00
1756.83,1250.00
1758.54,1217.00
1760.25,1218.00
1761.96,1281.00
1763.67,1249.00
1765.38,1239.00
1767.08,1250.00
1768.79,1249.00
1770.49,1217.00
1772.19,1197.00
1773.90,1186.00
1775.60,1186.00
1777.30,1175.00
1778.99,1175.00
1780.69,1122.00
1782.39,1164.00
1784.08,1228.00
1785.78,1186.00
1787.47,1165.00
1789.16,1144.00
1790.85,1154.00
1792.54,1175.00
1794.23,1218.00
1795.91,1239.00
1797.60,1250.00
1799.28,1217.00
1800.97,1218.00
1802.65,1165.00
1804.33,1186.00
1806.01,1196.00
1807.69,1218.00
1809.37,1197.00
1811.05,1165.00
1812.72,1207.00
1814.40,1154.00
1816.07,1112.00
1817.74,1154.00
1819.41,1186.00
1821.08,1123.00
1822.75,1101.00
1824.42,1122.00
1826.09,1165.00
1827.75,1165.00
1829.42,1155.00
1831.08,1133.00
1832.74,1101.00
1834.40,1122.00
1836.06,1186.00
1837.72,1133.00
1839.38,1154.00
1841.04,1101.00
1842.69,1070.00
1844.35,1101.00
1846.00,1112.00
1847.65,1123.00
1849.30,1134.00
1850.95,1154.00
1852.60,1133.00
1854.25,1122.00
1855.90,1112.00
1857.54,1101.00
1859.19,1080.00
1860.83,1059.00
1862.47,1102.00
1864.12,1069.00
1865.76,1059.00
1867.40,1101.00
1869.03,1080.00
1870.67,996.00
1872.31,1049.00
1873.94,1111.00
1875.57,1165.00
1877.21,1038.00
1878.84,1006.00
1880.47,1037.00
1882.10,1112.00
1883.73,1059.00
1885.35,1038.00
1886.98,974.00
1888.61,995.00
1890.23,953.00
1891.85,1048.00
1893.47,1133.00
1895.09,1070.00
1896.71,1017.00
1898.33,1059.00
1899.95,1016.00
1901.57,985.00
1903.18,985.00
1904.80,1006.00
1906.41,1058.00
1908.02,1037.00
1909.63,1017.00
1911.24,985.00
1912.85,953.00
1914.46,953.00
1916.07,995.00
1917.67,995.00
1919.28,1027.00
1920.88,975.00
1922.48,879.00
1924.08,910.00
1925.68,932.00
1927.28,931.00
1928.88,932.00
1930.48,974.00
1932.07,974.00
1933.67,932.00
1935.26,932.00
1936.86,911.00
1938.45,932.00
1940.04,901.00
1941.63,879.00
1943.22,889.00
1944.80,974.00
1946.39,921.00
1947.98,984.00
1949.56,964.00
1951.14,931.00
1952.73,943.00
1954.31,932.00
1955.89,942.00
1957.47,911.00
1959.05,932.00
1960.62,921.00
1962.20,900.00
1963.77,890.00
1965.35,847.00
1966.92,858.00
1968.49,953.00
1970.06,932.00
1971.63,932.00
1973.20,847.00
1974.77,889.00
1976.34,879.00
1977.90,858.00
1979.47,837.00
1981.03,868.00
1982.59,836.00
1984.15,826.00
1985.71,858.00
1987.27,857.00
1988.83,858.00
1990.39,879.00
1991.94,890.00
1993.50,890.00
1995.05,900.00
1996.61,868.00
1998.16,815.00
1999.71,805.00
2001.26,858.00
2002.81,848.00
2004.36,795.00
2005.91,805.00
2007.45,848.00
2009.00,868.00
2010.54,826.00
2012.08,710.00
2013.62,741.00
2015.17,794.00
2016.71,784.00
2018.24,784.00
2019.78,847.00
2021.32,847.00
2022.85,815.00
2024.39,773.00
2025.92,826.00
2027.46,795.00
2028.99,783.00
2030.52,815.00
2032.05,794.00
2033.58,794.00
2035.10,762.00
2036.63,763.00
2038.16,794.00
2039.68,710.00
2041.21,741.00
2042.73,783.00
2044.25,783.00
2045.77,794.00
2047.29,836.00
2048.81,805.00
2050.33,720.00
2051.84,710.00
2053.36,783.00
2054.87,762.00
2056.39,699.00
2057.90,762.00
2059.41,741.00
2060.92,741.00
2062.43,720.00
2063.94,699.00
2065.45,731.00
2066.95,699.00
2068.46,699.00
2069.96,688.00
2071.47,688.00
2072.97,688.00
2074.47,720.00
2075.97,710.00
2077.47,731.00
2078.97,742.00
2080.47,710.00
2081.96,667.00
2083.46,699.00
2084.95,709.00
2086.45,731.00
2087.94,710.00
2089.43,646.00
2090.92,656.00
2092.41,624.00
2093.90,699.00
2095.39,731.00
2096.88,667.00
2098.36,667.00
2099.85,720.00
2101.33,720.00
2102.81,656.00
2104.30,646.00
2105.78,656.00
2107.26,657.00
2108.74,667.00
2110.21,657.00
2111.69,635.00
2113.17,614.00
2114.64,656.00
2116.12,678.00
2117.59,667.00
2119.06,678.00
2120.53,645.00
2122.00,635.00
2123.47,625.00
2124.94,667.00
2126.41,657.00
2127.87,646.00
2129.34,667.00
2130.80,657.00
2132.27,625.00
2133.73,646.00
2135.19,646.00
2136.65,583.00
2138.11,593.00
2139.57,551.00
2141.03,582.00
2142.48,635.00
2143.94,604.00
2145.39,614.00
2146.85,657.00
2148.30,572.00
2149.75,551.00
2151.20,593.00
2152.65,604.00
2154.10,582.00
2155.55,582.00
2157.00,572.00
2158.44,572.00
2159.89,593.00
2161.33,604.00
2162.78,614.00
2164.22,582.00
2165.66,593.00
2167.10,561.00
2168.54,561.00
2169.98,572.00
2171.42,582.00
2172.85,603.00
2174.29,561.00
2175.72,582.00
2177.16,625.00
2178.59,614.00
2180.02,604.00
2181.45,551.00
2182.88,551.00
2184.31,603.00
2185.74,593.00
2187.17,551.00
2188.59,561.00
2190.02,572.00
2191.44,583.00
2192.87,582.00
2194.29,572.00
2195.71,593.00
2197.13,625.00
2198.55,657.00
2199.97,614.00
2201.39,583.00
2202.81,583.00
2204.22,551.00
2205.64,551.00
2207.05,551.00
2208.46,540.00
2209.88,509.00
2211.29,572.00
2212.70,561.00
2214.11,540.00
2215.52,540.00
2216.92,550.00
2218.33,551.00
2219.74,509.00
2221.14,530.00
2222.54,551.00
2223.95,530.00
2225.35,561.00
2226.75,582.00
2228.15,519.00
2229.55,498.00
2230.95,498.00
2232.35,477.00
2233.74,466.00
2235.14,445.00
2236.53,477.00
2237.93,551.00
2239.32,487.00
2240.71,455.00
2242.10,477.00
2243.49,466.00
2244.88,508.00
2246.27,498.00
2247.66,498.00
2249.04,519.00
2250.43,519.00
2251.81,561.00
2253.20,509.00
2254.58,529.00
2255.96,519.00
2257.34,519.00
2258.72,508.00
2260.10,509.00
2261.48,519.00
2262.86,477.00
2264.23,455.00
2265.61,424.00
2266.98,445.00
2268.36,434.00
2269.73,455.00
2271.10,424.00
2272.47,445.00
2273.84,488.00
2275.21,487.00
2276.58,487.00
2277.95,487.00
2279.31,477.00
2280.68,497.00
2282.05,487.00
2283.41,466.00
2284.77,508.00
2286.13,466.00
2287.50,423.00
2288.86,445.00
2290.22,444.00
2291.57,434.00
2292.93,403.00
2294.29,424.00
2295.64,445.00
2297.00,477.00
2298.35,456.00
2299.71,455.00
2301.06,466.00
2302.41,424.00
2303.76,423.00
2305.11,435.00
2306.46,403.00
2307.81,445.00
2309.15,466.00
2310.50,466.00
2311.84,508.00
2313.19,487.00
2314.53,403.00
2315.87,444.00
2317.22,456.00
2318.56,434.00
2319.90,434.00
2321.24,435.00
2322.57,424.00
2323.91,371.00
2325.25,403.00
2326.58,424.00
2327.92,424.00
2329.25,413.00
2330.58,434.00
2331.91,424.00
2333.25,403.00
2334.58,371.00
2335.90,392.00
2337.23,423.00
2338.56,424.00
2339.89,445.00
2341.21,413.00
2342.54,445.00
2343.86,402.00
2345.19,402.00
2346.51,434.00
2347.83,424.00
2349.15,444.00
2350.47,434.00
2351.79,423.00
2353.11,477.00
2354.42,456.00
2355.74,413.00
2357.06,381.00
2358.37,392.00
2359.68,424.00
2361.00,402.00
2362.31,349.00
2363.62,402.00
2364.93,424.00
2366.24,371.00
2367.55,402.00
2368.86,413.00
2370.16,413.00
2371.47,382.00
2372.77,381.00
2374.08,381.00
2375.38,338.00
2376.68,339.00
2377.98,338.00
2379.29,371.00
2380.59,381.00
2381.88,381.00
2383.18,371.00
2384.48,424.00
2385.78,402.00
2387.07,381.00
2388.37,350.00
2389.66,350.00
2390.95,392.00
2392.25,371.00
2393.54,328.00
2394.83,317.00
2396.12,349.00
2397.41,307.00
2398.70,318.00
2399.98,370.00
2401.27,360.00
2402.55,339.00
2403.84,317.00
2405.12,328.00
2406.41,381.00
2407.69,297.00
2408.97,307.00
2410.25,338.00
2411.53,328.00
2412.81,339.00
2414.09,338.00
2415.36,338.00
2416.64,339.00
2417.91,371.00
2419.19,381.00
2420.46,338.00
2421.74,297.00
2423.01,275.00
2424.28,317.00
2425.55,329.00
2426.82,328.00
2428.09,286.00
2429.36,307.00
2430.62,339.00
2431.89,328.00
2433.15,350.00
2434.42,381.00
2435.68,339.00
2436.94,402.00
2438.21,350.00
2439.47,329.00
2440.73,318.00
2441.99,297.00
2443.25,296.00
2444.51,350.00
2445.76,371.00
2447.02,328.00
2448.27,328.00
2449.53,286.00
2450.78,296.00
2452.03,286.00
2453.29,328.00
2454.54,297.00
2455.79,233.00
2457.04,286.00
2458.29,339.00
2459.54,275.00
2460.78,307.00
2462.03,371.00
2463.27,360.00
2464.52,349.00
2465.76,286.00
2467.01,275.00
2468.25,296.00
2469.49,307.00
2470.73,286.00
2471.97,296.00
2473.21,370.00
2474.45,350.00
2475.69,339.00
2476.92,318.00
2478.16,297.00
2479.39,296.00
2480.63,297.00
2481.86,329.00
2483.09,297.00
2484.32,275.00
2485.56,307.00
2486.79,317.00
2488.02,307.00
2489.24,297.00
2490.47,329.00
2491.70,329.00
2492.92,307.00
2494.15,339.00
2495.37,307.00
2496.60,286.00
2497.82,307.00
2499.04,297.00
2500.26,264.00
2501.48,297.00
2502.70,371.00
2503.92,328.00
2505.14,296.00
2506.36,317.00
2507.58,297.00
2508.79,275.00
2510.01,265.00
2511.22,307.00
2512.43,307.00
2513.64,265.00
2514.86,255.00
2516.07,212.00
2517.28,275.00
2518.49,275.00
2519.70,255.00
2520.90,286.00
2522.11,233.00
2523.32,243.00
2524.52,255.00
2525.73,276.00
2526.93,265.00
2528.13,275.00
2529.33,286.00
2530.54,307.00
2531.74,233.00
2532.94,233.00
2534.14,243.00
2535.33,254.00
2536.53,254.00
2537.73,255.00
2538.92,233.00
2540.12,254.00
2541.31,212.00
2542.51,222.00
2543.70,233.00
2544.89,254.00
2546.08,275.00
2547.27,265.00
2548.46,254.00
2549.65,264.00
2550.84,243.00
2552.03,244.00
2553.21,233.00
2554.40,254.00
2555.58,254.00
2556.77,254.00
2557.95,276.00
2559.13,211.00
2560.31,211.00
2561.50,244.00
2562.68,201.00
2563.85,255.00
2565.03,243.00
2566.21,286.00
2567.39,254.00
2568.56,296.00
2569.74,317.00
2570.91,254.00
2572.09,265.00
2573.26,275.00
2574.43,244.00
2575.61,254.00
2576.78,233.00
2577.95,233.00
2579.12,254.00
2580.29,233.00
2581.45,222.00
2582.62,233.00
2583.79,255.00
2584.95,233.00
2586.12,190.00
2587.28,180.00
2588.44,202.00
2589.61,222.00
2590.77,254.00
2591.93,233.00
2593.09,212.00
2594.25,265.00
2595.41,212.00
2596.56,223.00
2597.72,222.00
2598.88,212.00
2600.03,244.00
2601.19,243.00
2602.34,222.00
2603.50,244.00
2604.65,233.00
2605.80,222.00
2606.95,265.00
2608.10,265.00
2609.25,222.00
2610.40,233.00
2611.55,254.00
2612.70,254.00
2613.84,201.00
2614.99,233.00
2616.13,201.00
2617.28,201.00
2618.42,212.00
2619.56,190.00
2620.71,212.00
2621.85,169.00
2622.99,201.00
2624.13,244.00
2625.27,275.00
2626.40,243.00
2627.54,159.00
2628.68,169.00
2629.81,212.00
2630.95,212.00
2632.08,254.00
2633.22,233.00
2634.35,222.00
2635.48,201.00
2636.61,159.00
2637.74,211.00
2638.87,212.00
2640.00,275.00
2641.13,233.00
2642.26,232.00
2643.39,212.00
2644.51,190.00
2645.64,212.00
2646.76,212.00
2647.89,158.00
2649.01,191.00
2650.13,212.00
2651.25,265.00
2652.38,233.00
2653.50,180.00
2654.62,137.00
2655.73,212.00
2656.85,159.00
2657.97,190.00
2659.09,202.00
2660.20,170.00
2661.32,201.00
2662.43,212.00
2663.55,212.00
2664.66,170.00
2665.77,148.00
2666.88,233.00
2667.99,180.00
2669.10,190.00
2670.21,201.00
2671.32,138.00
2672.43,138.00
2673.54,169.00
2674.64,169.00
2675.75,148.00
2676.85,180.00
2677.96,191.00
2679.06,201.00
2680.16,243.00
2681.26,233.00
2682.37,254.00
2683.47,191.00
2684.57,106.00
2685.66,127.00
2686.76,170.00
2687.86,127.00
2688.96,128.00
2690.05,148.00
2691.15,148.00
2692.24,201.00
2693.34,148.00
2694.43,190.00
2695.52,191.00
2696.62,191.00
2697.71,116.00
2698.80,106.00
2699.89,170.00
2700.98,148.00
2702.06,190.00
2703.15,212.00
2704.24,201.00
2705.32,244.00
2706.41,254.00
2707.49,190.00
2708.58,169.00
2709.66,169.00
2710.74,180.00
2711.83,180.00
2712.91,212.00
2713.99,170.00
2715.07,138.00
2716.15,191.00
2717.22,127.00
2718.30,128.00
2719.38,170.00
2720.45,117.00
2721.53,85.00
2722.60,180.00
2723.68,169.00
2724.75,106.00
2725.82,180.00
2726.89,201.00
2727.97,180.00
2729.04,159.00
2730.11,148.00
2731.17,170.00
2732.24,170.00
2733.31,180.00
2734.38,169.00
2735.44,159.00
2736.51,158.00
2737.57,169.00
2738.64,191.00
2739.70,191.00
2740.76,212.00
2741.82,201.00
2742.89,211.00
2743.95,148.00
2745.01,158.00
2746.07,148.00
2747.12,170.00
2748.18,180.00
2749.24,127.00
2750.29,190.00
2751.35,191.00
2752.40,169.00
2753.46,201.00
2754.51,201.00
2755.57,180.00
2756.62,106.00
2757.67,127.00
2758.72,190.00
2759.77,116.00
2760.82,138.00
2761.87,149.00
2762.91,149.00
2763.96,127.00
2765.01,106.00
2766.05,106.00
2767.10,180.00
2768.14,201.00
2769.19,201.00
2770.23,149.00
2771.27,127.00
2772.31,117.00
2773.35,85.00
2774.40,96.00
2775.43,138.00
2776.47,106.00
2777.51,95.00
2778.55,95.00
2779.59,137.00
2780.62,106.00
2781.66,148.00
2782.69,180.00
2783.73,170.00
2784.76,169.00
2785.79,127.00
2786.82,127.00
2787.85,106.00
2788.89,106.00
2789.92,116.00
2790.94,137.00
2791.97,180.00
2793.00,149.00
2794.03,127.00
2795.05,64.00
2796.08,148.00
2797.11,148.00
2798.13,96.00
2799.15,116.00
2800.18,117.00
2801.20,85.00
2802.22,137.00
2803.24,149.00
2804.26,85.00
2805.28,116.00
2806.30,96.00
2807.32,74.00
2808.34,127.00
2809.35,106.00
2810.37,137.00
2811.39,170.00
2812.40,148.00
2813.41,170.00
2814.43,117.00
2815.44,95.00
2816.45,85.00
2817.46,137.00
2818.48,159.00
2819.49,169.00
2820.49,190.00
2821.50,191.00
2822.51,159.00
2823.52,127.00
2824.53,127.00
2825.53,85.00
2826.54,85.00
2827.54,95.00
2828.55,106.00
2829.55,116.00
2830.55,117.00
2831.55,117.00
2832.56,106.00
2833.56,128.00
2834.56,148.00
2835.56,159.00
2836.56,148.00
2837.55,170.00
2838.55,148.00
2839.55,149.00
2840.54,138.00
2841.54,169.00
2842.53,85.00
2843.53,85.00
2844.52,85.00
2845.51,116.00
2846.51,127.00
2847.50,74.00
2848.49,64.00
2849.48,85.00
2850.47,64.00
2851.46,95.00
2852.45,85.00
2853.43,95.00
2854.42,106.00
2855.41,85.00
2856.39,148.00
2857.38,117.00
2858.36,137.00
2859.34,170.00
2860.33,137.00
2861.31,116.00
2862.29,85.00
2863.27,85.00
2864.25,85.00
2865.23,84.00
2866.21,127.00
2867.19,148.00
2868.17,127.00
2869.14,85.00
2870.12,127.00
2871.09,138.00
2872.07,148.00
2873.04,127.00
2874.02,116.00
2874.99,64.00
2875.96,127.00
2876.93,106.00
2877.91,138.00
2878.88,106.00
2879.85,75.00
2880.82,106.00
2881.78,106.00
2882.75,84.00
2883.72,95.00
2884.69,148.00
2885.65,138.00
2886.62,74.00
2887.58,63.00
2888.55,127.00
2889.51,85.00
2890.47,53.00
2891.43,85.00
2892.39,116.00
2893.36,117.00
2894.31,95.00
2895.27,95.00
2896.23,85.00
2897.19,148.00
2898.15,148.00
2899.11,74.00
2900.06,106.00
2901.02,95.00
2901.97,106.00
2902.93,117.00
2903.88,127.00
2904.83,85.00
2905.79,106.00
2906.74,127.00
2907.69,105.00
2908.64,85.00
2909.59,127.00
2910.54,148.00
2911.49,148.00
2912.43,148.00
2913.38,106.00
2914.33,63.00
2915.27,42.00
2916.22,95.00
2917.16,116.00
2918.11,106.00
2919.05,117.00
2919.99,85.00
2920.94,74.00
2921.88,127.00
2922.82,159.00
2923.76,159.00
2924.70,64.00
2925.64,95.00
2926.58,170.00
2927.51,170.00
2928.45,95.00
2929.39,74.00
2930.32,85.00
2931.26,149.00
2932.19,117.00
2933.13,95.00
2934.06,106.00
2934.99,127.00
2935.92,137.00
2936.86,105.00
2937.79,106.00
2938.72,96.00
2939.65,117.00
2940.57,64.00
2941.50,105.00
2942.43,85.00
2943.36,148.00
2944.28,106.00
2945.21,95.00
2946.13,64.00
2947.06,84.00
2947.98,74.00
2948.91,95.00
2949.83,158.00
2950.75,117.00
2951.67,42.00
2952.59,84.00
2953.51,127.00
2954.43,127.00
2955.35,85.00
2956.27,53.00
2957.19,32.00
2958.10,53.00
2959.02,84.00
2959.94,138.00
2960.85,85.00
2961.77,42.00
2962.68,53.00
2963.59,85.00
2964.51,84.00
2965.42,96.00
2966.33,106.00
2967.24,95.00
2968.15,85.00
2969.06,84.00
2969.97,106.00
2970.88,127.00
2971.78,64.00
2972.69,85.00
2973.60,43.00
2974.50,63.00
2975.41,84.00
2976.31,32.00
2977.22,52.00
2978.12,53.00
2979.02,53.00
2979.93,43.00
2980.83,53.00
2981.73,53.00
2982.63,53.00
2983.53,63.00
2984.43,95.00
2985.33,106.00
2986.22,64.00
2987.12,85.00
2988.02,84.00
2988.91,106.00
2989.81,85.00
2990.70,0.00
2991.60,63.00
2992.49,84.00
2993.38,106.00
2994.28,127.00
2995.17,106.00
2996.06,159.00
2996.95,106.00
2997.84,96.00
2998.73,96.00
2999.62,64.00
3000.51,52.00
3001.40,84.00
3002.28,75.00
3003.17,85.00
3004.05,117.00
3004.94,106.00
3005.82,106.00
3006.71,75.00
3007.59,31.00
3008.47,21.00
3009.36,53.00
3010.24,43.00
3011.12,84.00
3012.00,85.00
3012.88,127.00
3013.76,85.00
3014.64,85.00
3015.51,74.00
3016.39,42.00
3017.27,64.00
3018.14,85.00
3019.02,42.00
3019.89,42.00
3020.77,84.00
3021.64,85.00
3022.52,106.00
3023.39,85.00
3024.26,85.00
3025.13,74.00
3026.00,32.00
3026.87,53.00
3027.74,53.00
3028.61,42.00
3029.48,105.00
3030.35,74.00
3031.21,43.00
3032.08,106.00
3032.95,106.00
3033.81,85.00
3034.68,31.00
3035.54,84.00
3036.40,63.00
3037.27,64.00
3038.13,63.00
3038.99,31.00
3039.85,32.00
3040.71,53.00
3041.57,22.00
3042.43,53.00
3043.29,85.00
3044.15,116.00
3045.01,106.00
3045.86,85.00
3046.72,64.00
3047.58,43.00
3048.43,21.00
3049.29,42.00
3050.14,85.00
3050.99,74.00
3051.85,95.00
3052.70,106.00
3053.55,96.00
3054.40,148.00
3055.25,117.00
3056.10,106.00
3056.95,85.00
3057.80,84.00
3058.65,95.00
3059.50,74.00
3060.34,42.00
3061.19,85.00
3062.04,64.00
3062.88,53.00
3063.73,96.00
3064.57,74.00
3065.42,63.00
3066.26,53.00
3067.10,64.00
3067.94,85.00
3068.78,85.00
3069.63,53.00
3070.47,43.00
3071.31,42.00
3072.14,53.00
3072.98,74.00
3073.82,64.00
3074.66,85.00
3075.49,84.00
3076.33,64.00
3077.17,52.00
3078.00,43.00
3078.83,64.00
3079.67,64.00
3080.50,21.00
3081.33,21.00
3082.17,42.00
3083.00,42.00
3083.83,42.00
3084.66,63.00
3085.49,106.00
3086.32,95.00
3087.15,64.00
3087.97,53.00
3088.80,53.00
3089.63,74.00
3090.46,31.00
3091.28,43.00
3092.11,74.00
3092.93,84.00
3093.75,96.00
3094.58,95.00
3095.40,95.00
3096.22,116.00
3097.05,85.00
3097.87,0.00
3098.69,63.00
3099.51,85.00
3100.33,31.00
3101.15,63.00
3101.96,85.00
3102.78,22.00
3103.60,85.00
3104.42,63.00
3105.23,42.00
3106.05,21.00
3106.86,42.00
3107.68,21.00
3108.49,53.00
3109.30,95.00
3110.12,32.00
3110.93,21.00
3111.74,74.00
3112.55,95.00
3113.36,64.00
3114.17,53.00
3114.98,63.00
3115.79,42.00
3116.60,85.00
3117.40,85.00
3118.21,64.00
3119.02,85.00
3119.82,74.00
3120.63,42.00
3121.43,21.00
3122.24,53.00
3123.04,53.00
3123.84,105.00
3124.65,74.00
3125.45,95.00
3126.25,116.00
3127.05,117.00
3127.85,63.00
3128.65,21.00
3129.45,85.00
3130.25,32.00
3131.05,10.00
3131.84,21.00
3132.64,42.00
3133.44,22.00
3134.23,11.00
3135.03,0.00
3135.82,53.00
3136.62,75.00
3137.41,32.00
3138.20,0.00
3139.00,43.00
3139.79,-21.00
3140.58,32.00
3141.37,74.00
3142.16,21.00
3142.95,42.00
3143.74,32.00
3144.53,32.00
3145.32,32.00
3146.10,21.00
3146.89,31.00
3147.68,53.00
3148.46,32.00
3149.25,31.00
3150.03,21.00
3150.82,42.00
3151.60,53.00
3152.38,32.00
3153.17,21.00
3153.95,74.00
3154.73,85.00
3155.51,106.00
3156.29,64.00
3157.07,63.00
3157.85,-21.00
3158.63,10.00
3159.41,63.00
3160.18,-21.00
3160.96,0.00
3161.74,42.00
3162.51,10.00
3163.29,0.00
3164.06,10.00
3164.84,53.00
3165.61,85.00
3166.38,95.00
3167.16,148.00
3167.93,127.00
3168.70,84.00
3169.47,64.00
3170.24,85.00
3171.01,42.00
3171.78,-11.00
3172.55,21.00
3173.32,63.00
3174.09,64.00
3174.85,42.00
3175.62,64.00
3176.39,74.00
3177.15,42.00
3177.92,21.00
3178.68,21.00
3179.45,0.00
3180.21,53.00
3180.97,53.00
3181.73,10.00
3182.50,0.00
3183.26,64.00
3184.02,42.00
3184.78,64.00
3185.54,42.00
3186.30,10.00
3187.05,10.00
3187.81,53.00
3188.57,64.00
3189.33,32.00
3190.08,64.00
3190.84,64.00
3191.59,31.00
3192.35,31.00
3193.10,0.00
3193.86,22.00
3194.61,84.00
3195.36,85.00
3196.12,74.00
3196.87,42.00
3197.62,42.00
3198.37,21.00
3199.12,0.00
3199.87,32.00
3200.62,21.00
3201.36,11.00
3202.11,64.00
3202.86,53.00
3203.61,42.00
3204.35,63.00
3205.10,42.00
3205.84,11.00
3206.59,43.00
3207.33,32.00
3208.08,32.00
3208.82,53.00
3209.56,106.00
3210.30,32.00
3211.05,53.00
3211.79,42.00
3212.53,64.00
3213.27,64.00
3214.01,32.00
3214.75,32.00
3215.48,43.00
3216.22,85.00
3216.96,64.00
3217.69,31.00
3218.43,21.00
3219.17,-42.00
3219.90,-21.00
3220.64,10.00
3221.37,0.00
3222.10,21.00
3222.84,43.00
3223.57,21.00
3224.30,32.00
3225.03,53.00
3225.76,63.00
3226.49,74.00
3227.22,84.00
3227.95,64.00
3228.68,53.00
3229.41,43.00
3230.14,10.00
3230.87,42.00
3231.59,63.00
3232.32,74.00
3233.04,42.00
3233.77,32.00
3234.49,10.00
3235.22,11.00
3235.94,42.00
3236.66,63.00
3237.39,105.00
3238.11,84.00
3238.83,63.00
3239.55,53.00
3240.27,74.00
3240.99,64.00
3241.71,74.00
3242.43,43.00
3243.15,10.00
3243.87,21.00
3244.58,0.00
3245.30,-11.00
3246.02,10.00
3246.73,42.00
3247.45,63.00
3248.16,53.00
3248.88,21.00
3249.59,0.00
3250.30,31.00
3251.01,85.00
3251.73,64.00
3252.44,10.00
3253.15,0.00
3253.86,32.00
3254.57,21.00
3255.28,0.00
3255.99,53.00
3256.70,42.00
3257.41,32.00
3258.11,0.00
3258.82,21.00
3259.53,31.00
3260.23,21.00
3260.94,11.00
3261.64,21.00
3262.35,43.00
3263.05,11.00
3263.76,42.00
3264.46,53.00
3265.16,42.00
3265.86,11.00
3266.56,21.00
3267.26,32.00
3267.97,10.00
3268.67,0.00
3269.36,32.00
3270.06,53.00
3270.76,21.00
3271.46,-11.00
3272.16,10.00
3272.85,0.00
