RamanShift,Intensity
180.91,265.00
183.74,275.00
186.56,349.00
189.39,445.00
192.21,677.00
195.03,869.00
197.84,1176.00
200.66,1610.00
203.47,2161.00
206.28,2669.00
209.09,3070.00
211.89,3463.00
214.70,3812.00
217.50,4129.00
220.30,4331.00
223.10,4554.00
225.89,4691.00
228.69,4850.00
231.48,4934.00
234.27,4893.00
237.05,4945.00
239.84,4924.00
242.62,4861.00
245.40,4743.00
248.18,4564.00
250.96,4267.00
253.73,4119.00
256.51,4034.00
259.28,3918.00
262.05,3791.00
264.81,3611.00
267.58,3548.00
270.34,3388.00
273.10,3293.00
275.86,3251.00
278.61,3261.00
281.37,3230.00
284.12,3209.00
286.87,3187.00
289.62,3198.00
292.36,3230.00
295.11,3167.00
297.85,3166.00
300.59,3156.00
303.33,3156.00
306.06,3093.00
308.80,3187.00
311.53,3262.00
314.26,3314.00
316.99,3261.00
319.71,3251.00
322.44,3219.00
325.16,3208.00
327.88,3208.00
330.59,3230.00
333.31,3176.00
336.02,3124.00
338.73,3028.00
341.44,3049.00
344.15,3018.00
346.86,3102.00
349.56,3060.00
352.26,3071.00
354.96,3145.00
357.66,3124.00
360.35,3071.00
363.05,3103.00
365.74,3103.00
368.43,3071.00
371.12,3092.00
373.80,3124.00
376.48,3177.00
379.17,3166.00
381.85,3135.00
384.52,3113.00
387.20,3156.00
389.87,3262.00
392.54,3188.00
395.21,3103.00
397.88,3187.00
400.55,3177.00
403.21,3177.00
405.87,3219.00
408.53,3187.00
411.19,3092.00
413.84,3145.00
416.50,3124.00
419.15,3188.00
421.80,3230.00
424.45,3103.00
427.10,3103.00
429.74,3166.00
432.38,3177.00
435.02,3145.00
437.66,3113.00
440.30,3039.00
442.93,3103.00
445.56,3166.00
448.19,3156.00
450.82,3049.00
453.45,3060.00
456.07,3102.00
458.70,3155.00
461.32,3145.00
463.94,3103.00
466.55,3082.00
469.17,3188.00
471.78,3251.00
474.39,3166.00
477.00,3103.00
479.61,3145.00
482.22,3145.00
484.82,3082.00
487.42,3092.00
490.02,3050.00
492.62,3018.00
495.21,3092.00
497.81,3071.00
500.40,3050.00
502.99,3050.00
505.58,2986.00
508.17,2965.00
510.75,3008.00
513.33,3081.00
515.91,3050.00
518.49,3092.00
521.07,3061.00
523.65,3039.00
526.22,3050.00
528.79,3081.00
531.36,3113.00
533.93,3082.00
536.49,3049.00
539.06,3008.00
541.62,3060.00
544.18,3103.00
546.74,3050.00
549.30,3050.00
551.85,3039.00
554.40,3028.00
556.95,3049.00
559.50,3071.00
562.05,3039.00
564.59,3007.00
567.14,2954.00
569.68,2901.00
572.22,2954.00
574.76,2943.00
577.29,2954.00
579.83,2965.00
582.36,2901.00
584.89,2817.00
587.42,2901.00
589.95,2944.00
592.47,2955.00
594.99,2869.00
597.52,2870.00
600.04,2912.00
602.55,2880.00
605.07,2902.00
607.58,2817.00
610.09,2859.00
612.60,2870.00
615.11,2891.00
617.62,2869.00
620.12,2775.00
622.63,2701.00
625.13,2806.00
627.63,2870.00
630.13,2838.00
632.62,2785.00
635.12,2763.00
637.61,2764.00
640.10,2785.00
642.59,2742.00
645.07,2721.00
647.56,2689.00
650.04,2700.00
652.52,2743.00
655.00,2742.00
657.48,2701.00
659.96,2689.00
662.43,2690.00
664.90,2647.00
667.37,2605.00
669.84,2679.00
672.31,2668.00
674.78,2647.00
677.24,2732.00
679.70,2753.00
682.16,2721.00
684.62,2690.00
687.08,2658.00
689.53,2552.00
691.98,2552.00
694.43,2679.00
696.88,2690.00
699.33,2626.00
701.78,2647.00
704.22,2573.00
706.66,2595.00
709.10,2573.00
711.54,2562.00
713.98,2605.00
716.42,2679.00
718.85,2838.00
721.28,2965.00
723.71,3039.00
726.14,3176.00
728.57,3261.00
730.99,3293.00
733.41,3293.00
735.83,3219.00
738.25,3155.00
740.67,3007.00
743.09,2827.00
745.50,2669.00
747.91,2562.00
750.33,2552.00
752.73,2509.00
755.14,2425.00
757.55,2415.00
759.95,2393.00
762.35,2425.00
764.75,2446.00
767.15,2457.00
769.55,2425.00
771.95,2446.00
774.34,2467.00
776.73,2393.00
779.12,2351.00
781.51,2436.00
783.90,2478.00
786.28,2372.00
788.67,2362.00
791.05,2351.00
793.43,2319.00
795.80,2319.00
798.18,2372.00
800.56,2383.00
802.93,2351.00
805.30,2309.00
807.67,2277.00
810.04,2224.00
812.40,2223.00
814.77,2276.00
817.13,2309.00
819.49,2266.00
821.85,2308.00
824.21,2277.00
826.57,2298.00
828.92,2309.00
831.27,2266.00
833.63,2234.00
835.98,2160.00
838.32,2139.00
840.67,2160.00
843.01,2107.00
845.36,2107.00
847.70,2022.00
850.04,2086.00
852.37,2171.00
854.71,2139.00
857.05,2192.00
859.38,2160.00
861.71,2118.00
864.04,2161.00
866.37,2139.00
868.69,2107.00
871.02,2086.00
873.34,2034.00
875.66,2065.00
877.98,2149.00
880.30,2118.00
882.62,2076.00
884.93,2097.00
887.24,2086.00
889.55,2129.00
891.86,2086.00
894.17,2012.00
896.48,2033.00
898.78,2033.00
901.09,2001.00
903.39,1980.00
905.69,2034.00
907.99,2054.00
910.28,2108.00
912.58,2055.00
914.87,2065.00
917.16,2044.00
919.45,2065.00
921.74,2096.00
924.03,2065.00
926.31,2033.00
928.60,2075.00
930.88,2044.00
933.16,1948.00
935.44,1969.00
937.72,2001.00
939.99,1991.00
942.26,2002.00
944.54,1980.00
946.81,2044.00
949.08,2034.00
951.34,2033.00
953.61,2065.00
955.87,2012.00
958.14,2076.00
960.40,2075.00
962.66,2022.00
964.92,2023.00
967.17,2012.00
969.43,2012.00
971.68,1948.00
973.93,1885.00
976.18,1917.00
978.43,1863.00
980.68,1832.00
982.92,1821.00
985.17,1821.00
987.41,1821.00
989.65,1885.00
991.89,1927.00
994.12,1842.00
996.36,1811.00
998.59,1875.00
1000.83,1821.00
1003.06,1842.00
1005.29,1822.00
1007.51,1800.00
1009.74,1810.00
1011.97,1842.00
1014.19,1864.00
1016.41,1800.00
1018.63,1842.00
1020.85,1884.00
1023.07,1842.00
1025.28,1832.00
1027.49,1853.00
1029.71,1822.00
1031.92,1800.00
1034.13,1832.00
1036.33,1853.00
1038.54,1895.00
1040.74,1896.00
1042.95,1811.00
1045.15,1832.00
1047.35,1800.00
1049.55,1737.00
1051.74,1747.00
1053.94,1747.00
1056.13,1747.00
1058.32,1716.00
1060.51,1779.00
1062.70,1800.00
1064.89,1790.00
1067.08,1705.00
1069.26,1758.00
1071.44,1821.00
1073.63,1737.00
1075.81,1684.00
1077.98,1715.00
1080.16,1663.00
1082.34,1716.00
1084.51,1726.00
1086.68,1674.00
1088.85,1673.00
1091.02,1652.00
1093.19,1673.00
1095.35,1674.00
1097.52,1683.00
1099.68,1652.00
1101.84,1652.00
1104.00,1758.00
1106.16,1727.00
1108.32,1673.00
1110.48,1652.00
1112.63,1694.00
1114.78,1736.00
1116.93,1673.00
1119.08,1674.00
1121.23,1620.00
1123.38,1631.00
1125.52,1704.00
1127.67,1694.00
1129.81,1641.00
1131.95,1567.00
1134.09,1578.00
1136.22,1567.00
1138.36,1556.00
1140.50,1578.00
1142.63,1588.00
1144.76,1557.00
1146.89,1525.00
1149.02,1493.00
1151.15,1546.00
1153.27,1525.00
1155.40,1451.00
1157.52,1483.00
1159.64,1504.00
1161.76,1578.00
1163.88,1578.00
1165.99,1536.00
1168.11,1504.00
1170.22,1514.00
1172.34,1483.00
1174.45,1493.00
1176.56,1461.00
1178.66,1440.00
1180.77,1515.00
1182.88,1525.00
1184.98,1503.00
1187.08,1472.00
1189.18,1462.00
1191.28,1493.00
1193.38,1450.00
1195.47,1387.00
1197.57,1419.00
1199.66,1440.00
1201.75,1472.00
1203.85,1493.00
1205.93,1503.00
1208.02,1462.00
1210.11,1408.00
1212.19,1441.00
1214.28,1503.00
1216.36,1515.00
1218.44,1525.00
1220.52,1515.00
1222.59,1525.00
1224.67,1440.00
1226.74,1482.00
1228.82,1524.00
1230.89,1503.00
1232.96,1525.00
1235.03,1462.00
1237.10,1462.00
1239.16,1483.00
1241.23,1493.00
1243.29,1483.00
1245.35,1461.00
1247.41,1440.00
1249.47,1451.00
1251.53,1483.00
1253.58,1429.00
1255.64,1419.00
1257.69,1462.00
1259.74,1483.00
1261.79,1387.00
1263.84,1419.00
1265.89,1376.00
1267.93,1408.00
1269.98,1397.00
1272.02,1377.00
1274.06,1430.00
1276.10,1451.00
1278.14,1409.00
1280.18,1334.00
1282.22,1335.00
1284.25,1397.00
1286.28,1461.00
1288.32,1376.00
1290.35,1313.00
1292.38,1355.00
1294.40,1398.00
1296.43,1398.00
1298.46,1398.00
1300.48,1345.00
1302.50,1334.00
1304.52,1345.00
1306.54,1366.00
1308.56,1409.00
1310.58,1376.00
1312.59,1398.00
1314.60,1440.00
1316.62,1440.00
1318.63,1514.00
1320.64,1557.00
1322.65,1568.00
1324.65,1588.00
1326.66,1610.00
1328.66,1652.00
1330.66,1673.00
1332.67,1684.00
1334.67,1642.00
1336.66,1652.00
1338.66,1652.00
1340.66,1556.00
1342.65,1546.00
1344.65,1504.00
1346.64,1419.00
1348.63,1376.00
1350.62,1419.00
1352.60,1409.00
1354.59,1335.00
1356.57,1334.00
1358.56,1377.00
1360.54,1345.00
1362.52,1324.00
1364.50,1344.00
1366.48,1345.00
1368.46,1324.00
1370.43,1313.00
1372.41,1345.00
1374.38,1376.00
1376.35,1335.00
1378.32,1261.00
1380.29,1260.00
1382.25,1270.00
1384.22,1249.00
1386.18,1238.00
1388.15,1207.00
1390.11,1324.00
1392.07,1334.00
1394.03,1249.00
1395.99,1260.00
1397.94,1228.00
1399.90,1270.00
1401.85,1291.00
1403.80,1281.00
1405.76,1218.00
1407.71,1186.00
1409.65,1208.00
1411.60,1292.00
1413.55,1281.00
1415.49,1228.00
1417.44,1186.00
1419.38,1250.00
1421.32,1281.00
1423.26,1208.00
1425.19,1143.00
1427.13,1186.00
1429.07,1250.00
1431.00,1239.00
1432.93,1176.00
1434.86,1080.00
1436.79,1091.00
1438.72,1123.00
1440.65,1165.00
1442.57,1176.00
1444.50,1207.00
1446.42,1186.00
1448.34,1154.00
1450.26,1207.00
1452.18,1186.00
1454.10,1155.00
1456.02,1186.00
1457.93,1144.00
1459.85,1186.00
1461.76,1228.00
1463.67,1134.00
1465.58,1154.00
1467.49,1165.00
1469.40,1144.00
1471.31,1207.00
1473.21,1228.00
1475.11,1176.00
1477.02,1165.00
1478.92,1165.00
1480.82,1144.00
1482.72,1090.00
1484.61,1112.00
1486.51,1112.00
1488.40,1102.00
1490.30,1122.00
1492.19,1080.00
1494.08,1143.00
1495.97,1122.00
1497.86,1091.00
1499.74,1080.00
1501.63,1058.00
1503.51,1080.00
1505.40,1027.00
1507.28,1059.00
1509.16,1069.00
1511.04,1048.00
1512.92,1048.00
1514.79,1080.00
1516.67,1122.00
1518.54,1133.00
1520.42,1090.00
1522.29,1059.00
1524.16,1059.00
1526.03,1069.00
1527.89,1091.00
1529.76,1059.00
1531.63,1017.00
1533.49,1027.00
1535.35,1016.00
1537.21,1016.00
1539.07,1027.00
1540.93,1028.00
1542.79,975.00
1544.65,974.00
1546.50,985.00
1548.36,1006.00
1550.21,1016.00
1552.06,1027.00
1553.91,996.00
1555.76,1038.00
1557.61,1037.00
1559.45,1028.00
1561.30,1005.00
1563.14,1016.00
1564.98,1048.00
1566.82,1027.00
1568.67,1006.00
1570.50,1016.00
1572.34,1027.00
1574.18,975.00
1576.01,995.00
1577.85,974.00
1579.68,964.00
1581.51,995.00
1583.34,1017.00
1585.17,1017.00
1587.00,964.00
1588.82,985.00
1590.65,953.00
1592.47,879.00
1594.30,943.00
1596.12,943.00
1597.94,942.00
1599.76,879.00
1601.57,942.00
1603.39,995.00
1605.21,943.00
1607.02,996.00
1608.83,932.00
1610.64,879.00
1612.45,848.00
1614.26,868.00
1616.07,805.00
1617.88,868.00
1619.68,868.00
1621.49,900.00
1623.29,858.00
1625.09,826.00
1626.89,868.00
1628.69,889.00
1630.49,847.00
1632.29,815.00
1634.08,879.00
1635.88,879.00
1637.67,858.00
1639.46,826.00
1641.25,858.00
1643.04,858.00
1644.83,910.00
1646.62,889.00
1648.41,890.00
1650.19,932.00
1651.97,857.00
1653.76,825.00
1655.54,826.00
1657.32,847.00
1659.10,836.00
1660.88,815.00
1662.65,826.00
1664.43,805.00
1666.20,815.00
1667.97,805.00
1669.75,783.00
1671.52,773.00
1673.29,741.00
1675.05,752.00
1676.82,752.00
1678.59,762.00
1680.35,773.00
1682.11,805.00
1683.88,815.00
1685.64,805.00
1687.40,752.00
1689.16,826.00
1690.91,804.00
1692.67,741.00
1694.42,762.00
1696.18,762.00
1697.93,783.00
1699.68,762.00
1701.43,762.00
1703.18,773.00
1704.93,752.00
1706.68,784.00
1708.42,752.00
1710.17,773.00
1711.91,815.00
1713.65,794.00
1715.39,762.00
1717.13,752.00
1718.87,751.00
1720.61,742.00
1722.35,741.00
1724.08,741.00
1725.81,688.00
1727.55,720.00
1729.28,741.00
1731.01,731.00
1732.74,731.00
1734.47,657.00
1736.19,709.00
1737.92,720.00
1739.64,699.00
1741.37,699.00
1743.09,667.00
1744.81,699.00
1746.53,678.00
1748.25,636.00
1749.97,709.00
1751.68,709.00
1753.40,678.00
1755.11,668.00
1756.83,678.00
1758.54,699.00
1760.25,741.00
1761.96,710.00
1763.67,699.00
1765.38,677.00
1767.08,699.00
1768.79,720.00
1770.49,699.00
1772.19,667.00
1773.90,614.00
1775.60,635.00
1777.30,625.00
1778.99,646.00
1780.69,678.00
1782.39,657.00
1784.08,572.00
1785.78,572.00
1787.47,646.00
1789.16,656.00
1790.85,635.00
1792.54,635.00
1794.23,625.00
1795.91,657.00
1797.60,667.00
1799.28,678.00
1800.97,678.00
1802.65,625.00
1804.33,657.00
1806.01,667.00
1807.69,667.00
1809.37,667.00
1811.05,636.00
1812.72,583.00
1814.40,593.00
1816.07,572.00
1817.74,583.00
1819.41,636.00
1821.08,604.00
1822.75,582.00
1824.42,614.00
1826.09,603.00
1827.75,636.00
1829.42,625.00
1831.08,657.00
1832.74,614.00
1834.40,582.00
1836.06,572.00
1837.72,593.00
1839.38,614.00
1841.04,604.00
1842.69,657.00
1844.35,636.00
1846.00,540.00
1847.65,593.00
1849.30,615.00
1850.95,582.00
1852.60,561.00
1854.25,604.00
1855.90,603.00
1857.54,604.00
1859.19,540.00
1860.83,529.00
1862.47,562.00
1864.12,625.00
1865.76,625.00
1867.40,635.00
1869.03,614.00
1870.67,614.00
1872.31,593.00
1873.94,593.00
1875.57,530.00
1877.21,519.00
1878.84,561.00
1880.47,550.00
1882.10,551.00
1883.73,530.00
1885.35,530.00
1886.98,572.00
1888.61,550.00
1890.23,582.00
1891.85,571.00
1893.47,551.00
1895.09,572.00
1896.71,551.00
1898.33,540.00
1899.95,540.00
1901.57,551.00
1903.18,530.00
1904.80,561.00
1906.41,572.00
1908.02,551.00
1909.63,498.00
1911.24,487.00
1912.85,540.00
1914.46,561.00
1916.07,519.00
1917.67,551.00
1919.28,561.00
1920.88,508.00
1922.48,550.00
1924.08,551.00
1925.68,530.00
1927.28,466.00
1928.88,466.00
1930.48,519.00
1932.07,498.00
1933.67,477.00
1935.26,487.00
1936.86,509.00
1938.45,487.00
1940.04,508.00
1941.63,498.00
1943.22,466.00
1944.80,466.00
1946.39,466.00
1947.98,444.00
1949.56,487.00
1951.14,466.00
1952.73,466.00
1954.31,509.00
1955.89,487.00
1957.47,455.00
1959.05,487.00
1960.62,540.00
1962.20,583.00
1963.77,540.00
1965.35,487.00
1966.92,456.00
1968.49,498.00
1970.06,455.00
1971.63,445.00
1973.20,466.00
1974.77,423.00
1976.34,444.00
1977.90,466.00
1979.47,509.00
1981.03,508.00
1982.59,455.00
1984.15,424.00
1985.71,424.00
1987.27,445.00
1988.83,487.00
1990.39,466.00
1991.94,487.00
1993.50,498.00
1995.05,508.00
1996.61,444.00
1998.16,445.00
1999.71,434.00
2001.26,455.00
2002.81,466.00
2004.36,456.00
2005.91,487.00
2007.45,508.00
2009.00,487.00
2010.54,455.00
2012.08,445.00
2013.62,466.00
2015.17,456.00
2016.71,434.00
2018.24,423.00
2019.78,445.00
2021.32,423.00
2022.85,435.00
2024.39,413.00
2025.92,392.00
2027.46,360.00
2028.99,403.00
2030.52,392.00
2032.05,413.00
2033.58,391.00
2035.10,382.00
2036.63,382.00
2038.16,402.00
2039.68,456.00
2041.21,434.00
2042.73,445.00
2044.25,434.00
2045.77,413.00
2047.29,403.00
2048.81,381.00
2050.33,434.00
2051.84,434.00
2053.36,445.00
2054.87,424.00
2056.39,456.00
2057.90,444.00
2059.41,434.00
2060.92,402.00
2062.43,402.00
2063.94,423.00
2065.45,381.00
2066.95,371.00
2068.46,370.00
2069.96,328.00
2071.47,381.00
2072.97,392.00
2074.47,392.00
2075.97,392.00
2077.47,424.00
2078.97,423.00
2080.47,424.00
2081.96,392.00
2083.46,413.00
2084.95,391.00
2086.45,392.00
2087.94,371.00
2089.43,392.00
2090.92,371.00
2092.41,382.00
2093.90,424.00
2095.39,392.00
2096.88,434.00
2098.36,444.00
2099.85,413.00
2101.33,392.00
2102.81,360.00
2104.30,318.00
2105.78,349.00
2107.26,371.00
2108.74,392.00
2110.21,339.00
2111.69,349.00
2113.17,339.00
2114.64,349.00
2116.12,286.00
2117.59,318.00
2119.06,329.00
2120.53,318.00
2122.00,318.00
2123.47,350.00
2124.94,360.00
2126.41,318.00
2127.87,392.00
2129.34,360.00
2130.80,296.00
2132.27,360.00
2133.73,371.00
2135.19,339.00
2136.65,339.00
2138.11,392.00
2139.57,371.00
2141.03,339.00
2142.48,296.00
2143.94,297.00
2145.39,350.00
2146.85,392.00
2148.30,338.00
2149.75,339.00
2151.20,307.00
2152.65,296.00
2154.10,307.00
2155.55,276.00
2157.00,318.00
2158.44,328.00
2159.89,392.00
2161.33,391.00
2162.78,339.00
2164.22,317.00
2165.66,318.00
2167.10,339.00
2168.54,329.00
2169.98,403.00
2171.42,318.00
2172.85,318.00
2174.29,328.00
2175.72,328.00
2177.16,339.00
2178.59,339.00
2180.02,317.00
2181.45,338.00
2182.88,317.00
2184.31,307.00
2185.74,318.00
2187.17,382.00
2188.59,329.00
2190.02,297.00
2191.44,318.00
2192.87,339.00
2194.29,286.00
2195.71,296.00
2197.13,349.00
2198.55,360.00
2199.97,318.00
2201.39,339.00
2202.81,382.00
2204.22,339.00
2205.64,286.00
2207.05,286.00
2208.46,318.00
2209.88,297.00
2211.29,265.00
2212.70,255.00
2214.11,255.00
2215.52,297.00
2216.92,318.00
2218.33,286.00
2219.74,317.00
2221.14,317.00
2222.54,296.00
2223.95,297.00
2225.35,275.00
2226.75,307.00
2228.15,275.00
2229.55,276.00
2230.95,318.00
2232.35,297.00
2233.74,286.00
2235.14,297.00
2236.53,318.00
2237.93,286.00
2239.32,286.00
2240.71,286.00
2242.10,360.00
2243.49,286.00
2244.88,254.00
2246.27,276.00
2247.66,275.00
2249.04,265.00
2250.43,297.00
2251.81,276.00
2253.20,254.00
2254.58,254.00
2255.96,233.00
2257.34,254.00
2258.72,254.00
2260.10,276.00
2261.48,328.00
2262.86,339.00
2264.23,329.00
2265.61,329.00
2266.98,296.00
2268.36,276.00
2269.73,243.00
2271.10,254.00
2272.47,254.00
2273.84,212.00
2275.21,201.00
2276.58,264.00
2277.95,254.00
2279.31,180.00
2280.68,180.00
2282.05,233.00
2283.41,307.00
2284.77,318.00
2286.13,243.00
2287.50,275.00
2288.86,233.00
2290.22,233.00
2291.57,233.00
2292.93,265.00
2294.29,264.00
2295.64,233.00
2297.00,212.00
2298.35,254.00
2299.71,254.00
2301.06,296.00
2302.41,254.00
2303.76,233.00
2305.11,254.00
2306.46,275.00
2307.81,276.00
2309.15,191.00
2310.50,222.00
2311.84,244.00
2313.19,191.00
2314.53,169.00
2315.87,211.00
2317.22,264.00
2318.56,254.00
2319.90,222.00
2321.24,222.00
2322.57,244.00
2323.91,212.00
2325.25,244.00
2326.58,276.00
2327.92,254.00
2329.25,233.00
2330.58,201.00
2331.91,244.00
2333.25,244.00
2334.58,254.00
2335.90,254.00
2337.23,233.00
2338.56,255.00
2339.89,255.00
2341.21,212.00
2342.54,233.00
2343.86,254.00
2345.19,212.00
2346.51,233.00
2347.83,254.00
2349.15,212.00
2350.47,201.00
2351.79,191.00
2353.11,149.00
2354.42,190.00
2355.74,180.00
2357.06,169.00
2358.37,180.00
2359.68,212.00
2361.00,212.00
2362.31,180.00
2363.62,191.00
2364.93,254.00
2366.24,191.00
2367.55,170.00
2368.86,169.00
2370.16,170.00
2371.47,180.00
2372.77,202.00
2374.08,212.00
2375.38,265.00
2376.68,233.00
2377.98,275.00
2379.29,243.00
2380.59,169.00
2381.88,191.00
2383.18,180.00
2384.48,169.00
2385.78,169.00
2387.07,170.00
2388.37,180.00
2389.66,159.00
2390.95,212.00
2392.25,202.00
2393.54,201.00
2394.83,222.00
2396.12,202.00
2397.41,222.00
2398.70,180.00
2399.98,170.00
2401.27,212.00
2402.55,190.00
2403.84,170.00
2405.12,180.00
2406.41,202.00
2407.69,254.00
2408.97,244.00
2410.25,244.00
2411.53,223.00
2412.81,170.00
2414.09,170.00
2415.36,190.00
2416.64,148.00
2417.91,190.00
2419.19,233.00
2420.46,233.00
2421.74,201.00
2423.01,201.00
2424.28,159.00
2425.55,159.00
2426.82,190.00
2428.09,201.00
2429.36,201.00
2430.62,190.00
2431.89,159.00
2433.15,106.00
2434.42,170.00
2435.68,212.00
2436.94,201.00
2438.21,212.00
2439.47,170.00
2440.73,191.00
2441.99,212.00
2443.25,180.00
2444.51,212.00
2445.76,180.00
2447.02,149.00
2448.27,212.00
2449.53,191.00
2450.78,202.00
2452.03,191.00
2453.29,223.00
2454.54,180.00
2455.79,170.00
2457.04,138.00
2458.29,127.00
2459.54,170.00
2460.78,191.00
2462.03,170.00
2463.27,212.00
2464.52,191.00
2465.76,148.00
2467.01,148.00
2468.25,201.00
2469.49,233.00
2470.73,222.00
2471.97,180.00
2473.21,191.00
2474.45,170.00
2475.69,223.00
2476.92,169.00
2478.16,148.00
2479.39,170.00
2480.63,201.00
2481.86,169.00
2483.09,149.00
2484.32,148.00
2485.56,148.00
2486.79,148.00
2488.02,158.00
2489.24,170.00
2490.47,149.00
2491.70,95.00
2492.92,127.00
2494.15,127.00
2495.37,180.00
2496.60,159.00
2497.82,138.00
2499.04,169.00
2500.26,170.00
2501.48,138.00
2502.70,128.00
2503.92,191.00
2505.14,127.00
2506.36,106.00
2507.58,148.00
2508.79,212.00
2510.01,158.00
2511.22,148.00
2512.43,127.00
2513.64,127.00
2514.86,95.00
2516.07,127.00
2517.28,170.00
2518.49,148.00
2519.70,148.00
2520.90,169.00
2522.11,148.00
2523.32,201.00
2524.52,169.00
2525.73,169.00
2526.93,169.00
2528.13,170.00
2529.33,159.00
2530.54,170.00
2531.74,212.00
2532.94,170.00
2534.14,159.00
2535.33,149.00
2536.53,201.00
2537.73,169.00
2538.92,138.00
2540.12,127.00
2541.31,190.00
2542.51,202.00
2543.70,149.00
2544.89,170.00
2546.08,127.00
2547.27,96.00
2548.46,127.00
2549.65,127.00
2550.84,137.00
2552.03,148.00
2553.21,106.00
2554.40,127.00
2555.58,169.00
2556.77,148.00
2557.95,117.00
2559.13,149.00
2560.31,201.00
2561.50,159.00
2562.68,191.00
2563.85,180.00
2565.03,148.00
2566.21,138.00
2567.39,149.00
2568.56,170.00
2569.74,159.00
2570.91,138.00
2572.09,138.00
2573.26,170.00
2574.43,138.00
2575.61,106.00
2576.78,212.00
2577.95,159.00
2579.12,106.00
2580.29,169.00
2581.45,159.00
2582.62,169.00
2583.79,169.00
2584.95,170.00
2586.12,138.00
2587.28,148.00
2588.44,106.00
2589.61,95.00
2590.77,148.00
2591.93,170.00
2593.09,191.00
2594.25,159.00
2595.41,169.00
2596.56,180.00
2597.72,127.00
2598.88,138.00
2600.03,148.00
2601.19,127.00
2602.34,95.00
2603.50,106.00
2604.65,149.00
2605.80,159.00
2606.95,127.00
2608.10,128.00
2609.25,106.00
2610.40,106.00
2611.55,95.00
2612.70,106.00
2613.84,106.00
2614.99,128.00
2616.13,106.00
2617.28,128.00
2618.42,127.00
2619.56,170.00
2620.71,117.00
2621.85,138.00
2622.99,64.00
2624.13,64.00
2625.27,138.00
2626.40,170.00
2627.54,149.00
2628.68,117.00
2629.81,148.00
2630.95,106.00
2632.08,95.00
2633.22,170.00
2634.35,159.00
2635.48,117.00
2636.61,138.00
2637.74,106.00
2638.87,127.00
2640.00,106.00
2641.13,85.00
2642.26,127.00
2643.39,148.00
2644.51,148.00
2645.64,127.00
2646.76,148.00
2647.89,138.00
2649.01,117.00
2650.13,96.00
2651.25,106.00
2652.38,85.00
2653.50,74.00
2654.62,64.00
2655.73,117.00
2656.85,106.00
2657.97,106.00
2659.09,95.00
2660.20,127.00
2661.32,148.00
2662.43,127.00
2663.55,43.00
2664.66,95.00
2665.77,148.00
2666.88,117.00
2667.99,116.00
2669.10,85.00
2670.21,85.00
2671.32,85.00
2672.43,85.00
2673.54,148.00
2674.64,138.00
2675.75,116.00
2676.85,127.00
2677.96,137.00
2679.06,96.00
2680.16,96.00
2681.26,149.00
2682.37,149.00
2683.47,106.00
2684.57,96.00
2685.66,159.00
2686.76,105.00
2687.86,106.00
2688.96,84.00
2690.05,74.00
2691.15,85.00
2692.24,106.00
2693.34,106.00
2694.43,128.00
2695.52,128.00
2696.62,137.00
2697.71,148.00
2698.80,138.00
2699.89,128.00
2700.98,148.00
2702.06,106.00
2703.15,137.00
2704.24,85.00
2705.32,95.00
2706.41,95.00
2707.49,106.00
2708.58,127.00
2709.66,159.00
2710.74,148.00
2711.83,85.00
2712.91,84.00
2713.99,127.00
2715.07,137.00
2716.15,63.00
2717.22,96.00
2718.30,106.00
2719.38,117.00
2720.45,138.00
2721.53,138.00
2722.60,127.00
2723.68,127.00
2724.75,74.00
2725.82,53.00
2726.89,63.00
2727.97,117.00
2729.04,64.00
2730.11,106.00
2731.17,127.00
2732.24,85.00
2733.31,127.00
2734.38,106.00
2735.44,95.00
2736.51,85.00
2737.57,96.00
2738.64,95.00
2739.70,63.00
2740.76,96.00
2741.82,106.00
2742.89,137.00
2743.95,148.00
2745.01,149.00
2746.07,106.00
2747.12,74.00
2748.18,105.00
2749.24,64.00
2750.29,95.00
2751.35,85.00
2752.40,63.00
2753.46,85.00
2754.51,43.00
2755.57,64.00
2756.62,53.00
2757.67,74.00
2758.72,95.00
2759.77,85.00
2760.82,84.00
2761.87,148.00
2762.91,106.00
2763.96,64.00
2765.01,85.00
2766.05,74.00
2767.10,64.00
2768.14,85.00
2769.19,95.00
2770.23,85.00
2771.27,63.00
2772.31,84.00
2773.35,84.00
2774.40,138.00
2775.43,64.00
2776.47,106.00
2777.51,105.00
2778.55,85.00
2779.59,85.00
2780.62,85.00
2781.66,42.00
2782.69,95.00
2783.73,74.00
2784.76,42.00
2785.79,53.00
2786.82,63.00
2787.85,127.00
2788.89,106.00
2789.92,106.00
2790.94,85.00
2791.97,96.00
2793.00,63.00
2794.03,85.00
2795.05,148.00
2796.08,117.00
2797.11,106.00
2798.13,85.00
2799.15,95.00
2800.18,85.00
2801.20,85.00
2802.22,85.00
2803.24,85.00
2804.26,63.00
2805.28,95.00
2806.30,117.00
2807.32,74.00
2808.34,84.00
2809.35,85.00
2810.37,64.00
2811.39,21.00
2812.40,64.00
2813.41,117.00
2814.43,148.00
2815.44,95.00
2816.45,64.00
2817.46,96.00
2818.48,64.00
2819.49,42.00
2820.49,53.00
2821.50,64.00
2822.51,32.00
2823.52,64.00
2824.53,63.00
2825.53,127.00
2826.54,96.00
2827.54,85.00
2828.55,64.00
2829.55,63.00
2830.55,32.00
2831.55,64.00
2832.56,63.00
2833.56,74.00
2834.56,53.00
2835.56,84.00
2836.56,84.00
2837.55,64.00
2838.55,21.00
2839.55,106.00
2840.54,106.00
2841.54,64.00
2842.53,10.00
2843.53,64.00
2844.52,127.00
2845.51,117.00
2846.51,106.00
2847.50,74.00
2848.49,42.00
2849.48,0.00
2850.47,21.00
2851.46,32.00
2852.45,0.00
2853.43,42.00
2854.42,53.00
2855.41,64.00
2856.39,74.00
2857.38,64.00
2858.36,32.00
2859.34,53.00
2860.33,64.00
2861.31,74.00
2862.29,106.00
2863.27,64.00
2864.25,53.00
2865.23,85.00
2866.21,85.00
2867.19,117.00
2868.17,106.00
2869.14,64.00
2870.12,75.00
2871.09,42.00
2872.07,10.00
2873.04,42.00
2874.02,53.00
2874.99,31.00
2875.96,43.00
2876.93,64.00
2877.91,63.00
2878.88,53.00
2879.85,63.00
2880.82,42.00
2881.78,53.00
2882.75,85.00
2883.72,84.00
2884.69,64.00
2885.65,74.00
2886.62,84.00
2887.58,74.00
2888.55,32.00
2889.51,52.00
2890.47,43.00
2891.43,52.00
2892.39,31.00
2893.36,21.00
2894.31,0.00
2895.27,-11.00
2896.23,0.00
2897.19,52.00
2898.15,106.00
2899.11,43.00
2900.06,53.00
2901.02,84.00
2901.97,21.00
2902.93,85.00
2903.88,63.00
2904.83,53.00
2905.79,43.00
2906.74,0.00
2907.69,21.00
2908.64,21.00
2909.59,22.00
2910.54,21.00
2911.49,63.00
2912.43,74.00
2913.38,95.00
2914.33,116.00
2915.27,106.00
2916.22,53.00
2917.16,53.00
2918.11,85.00
2919.05,127.00
2919.99,117.00
2920.94,63.00
2921.88,0.00
2922.82,52.00
2923.76,85.00
2924.70,32.00
2925.64,43.00
2926.58,32.00
2927.51,85.00
2928.45,117.00
2929.39,85.00
2930.32,74.00
2931.26,85.00
2932.19,74.00
2933.13,43.00
2934.06,64.00
2934.99,53.00
2935.92,43.00
2936.86,116.00
2937.79,95.00
2938.72,64.00
2939.65,53.00
2940.57,42.00
2941.50,43.00
2942.43,64.00
2943.36,64.00
2944.28,53.00
2945.21,21.00
2946.13,21.00
2947.06,74.00
2947.98,21.00
2948.91,53.00
2949.83,105.00
2950.75,85.00
2951.67,74.00
2952.59,63.00
2953.51,53.00
2954.43,53.00
2955.35,53.00
2956.27,32.00
2957.19,11.00
2958.10,84.00
2959.02,106.00
2959.94,64.00
2960.85,42.00
2961.77,74.00
2962.68,31.00
2963.59,42.00
2964.51,85.00
2965.42,74.00
2966.33,85.00
2967.24,63.00
2968.15,32.00
2969.06,53.00
2969.97,10.00
2970.88,21.00
2971.78,31.00
2972.69,11.00
2973.60,53.00
2974.50,42.00
2975.41,64.00
2976.31,96.00
2977.22,117.00
2978.12,116.00
2979.02,42.00
2979.93,63.00
2980.83,106.00
2981.73,127.00
2982.63,74.00
2983.53,53.00
2984.43,74.00
2985.33,95.00
2986.22,75.00
2987.12,84.00
2988.02,64.00
2988.91,63.00
2989.81,74.00
2990.70,63.00
2991.60,31.00
2992.49,63.00
2993.38,63.00
2994.28,63.00
2995.17,106.00
2996.06,85.00
2996.95,43.00
2997.84,11.00
2998.73,0.00
2999.62,21.00
3000.51,53.00
3001.40,84.00
3002.28,42.00
3003.17,63.00
3004.05,21.00
3004.94,0.00
3005.82,42.00
3006.71,42.00
3007.59,32.00
3008.47,21.00
3009.36,42.00
3010.24,42.00
3011.12,0.00
3012.00,42.00
3012.88,42.00
3013.76,43.00
3014.64,42.00
3015.51,42.00
3016.39,42.00
3017.27,22.00
3018.14,42.00
3019.02,42.00
3019.89,-11.00
3020.77,43.00
3021.64,21.00
3022.52,0.00
3023.39,10.00
3024.26,0.00
3025.13,10.00
3026.00,-10.00
3026.87,42.00
3027.74,42.00
3028.61,10.00
3029.48,21.00
3030.35,64.00
3031.21,32.00
3032.08,42.00
3032.95,32.00
3033.81,85.00
3034.68,-10.00
3035.54,-21.00
3036.40,0.00
3037.27,0.00
3038.13,-10.00
3038.99,0.00
3039.85,10.00
3040.71,10.00
3041.57,21.00
3042.43,43.00
3043.29,0.00
3044.15,-10.00
3045.01,-21.00
3045.86,-10.00
3046.72,43.00
3047.58,64.00
3048.43,21.00
3049.29,31.00
3050.14,42.00
3050.99,0.00
3051.85,0.00
3052.70,11.00
3053.55,42.00
3054.40,-21.00
3055.25,0.00
3056.10,64.00
3056.95,42.00
3057.80,11.00
3058.65,21.00
3059.50,74.00
3060.34,75.00
3061.19,64.00
3062.04,64.00
3062.88,21.00
3063.73,43.00
3064.57,85.00
3065.42,84.00
3066.26,74.00
3067.10,63.00
3067.94,31.00
3068.78,42.00
3069.63,32.00
3070.47,63.00
3071.31,63.00
3072.14,84.00
3072.98,85.00
3073.82,42.00
3074.66,11.00
3075.49,0.00
3076.33,-21.00
3077.17,-43.00
3078.00,0.00
3078.83,64.00
3079.67,32.00
3080.50,53.00
3081.33,85.00
3082.17,32.00
3083.00,-21.00
3083.83,0.00
3084.66,42.00
3085.49,64.00
3086.32,42.00
3087.15,0.00
3087.97,53.00
3088.80,96.00
3089.63,22.00
3090.46,21.00
3091.28,43.00
3092.11,21.00
3092.93,10.00
3093.75,11.00
3094.58,-10.00
3095.40,0.00
3096.22,-11.00
3097.05,0.00
3097.87,63.00
3098.69,22.00
3099.51,0.00
3100.33,21.00
3101.15,31.00
3101.96,-10.00
3102.78,10.00
3103.60,10.00
3104.42,21.00
3105.23,10.00
3106.05,10.00
3106.86,53.00
3107.68,63.00
3108.49,0.00
3109.30,32.00
3110.12,42.00
3110.93,32.00
3111.74,63.00
3112.55,32.00
3113.36,0.00
3114.17,-21.00
3114.98,10.00
3115.79,10.00
3116.60,21.00
3117.40,21.00
3118.21,53.00
3119.02,32.00
3119.82,63.00
3120.63,11.00
3121.43,-11.00
3122.24,0.00
3123.04,21.00
3123.84,31.00
3124.65,63.00
3125.45,42.00
3126.25,0.00
3127.05,10.00
3127.85,21.00
3128.65,22.00
3129.45,31.00
3130.25,11.00
3131.05,21.00
3131.84,32.00
3132.64,42.00
3133.44,85.00
3134.23,63.00
3135.03,21.00
3135.82,11.00
3136.62,42.00
3137.41,64.00
3138.20,21.00
3139.00,42.00
3139.79,21.00
3140.58,-32.00
3141.37,-21.00
3142.16,63.00
3142.95,74.00
3143.74,32.00
3144.53,42.00
3145.32,21.00
3146.10,11.00
3146.89,21.00
3147.68,75.00
3148.46,42.00
3149.25,53.00
3150.03,11.00
3150.82,21.00
3151.60,43.00
3152.38,32.00
3153.17,0.00
3153.95,21.00
3154.73,22.00
3155.51,0.00
3156.29,21.00
3157.07,31.00
3157.85,85.00
3158.63,64.00
3159.41,11.00
3160.18,-42.00
3160.96,-21.00
3161.74,21.00
3162.51,0.00
3163.29,0.00
3164.06,21.00
3164.84,42.00
3165.61,0.00
3166.38,-31.00
3167.16,21.00
3167.93,74.00
3168.70,21.00
3169.47,42.00
3170.24,21.00
3171.01,11.00
3171.78,-21.00
3172.55,-21.00
3173.32,0.00
3174.09,21.00
3174.85,21.00
3175.62,-21.00
3176.39,21.00
3177.15,11.00
3177.92,21.00
3178.68,11.00
3179.45,0.00
3180.21,0.00
3180.97,22.00
3181.73,42.00
3182.50,21.00
3183.26,11.00
3184.02,-22.00
3184.78,-11.00
3185.54,74.00
3186.30,42.00
3187.05,0.00
3187.81,0.00
3188.57,42.00
3189.33,64.00
3190.08,64.00
3190.84,96.00
3191.59,85.00
3192.35,64.00
3193.10,64.00
3193.86,31.00
3194.61,21.00
3195.36,21.00
3196.12,-11.00
3196.87,10.00
3197.62,32.00
3198.37,21.00
3199.12,-11.00
3199.87,10.00
3200.62,32.00
3201.36,32.00
3202.11,43.00
3202.86,-11.00
3203.61,10.00
3204.35,22.00
3205.10,32.00
3205.84,42.00
3206.59,32.00
3207.33,0.00
3208.08,-21.00
3208.82,0.00
3209.56,53.00
3210.30,42.00
3211.05,43.00
3211.79,11.00
3212.53,-21.00
3213.27,11.00
3214.01,32.00
3214.75,53.00
3215.48,106.00
3216.22,63.00
3216.96,32.00
3217.69,52.00
3218.43,0.00
3219.17,-42.00
3219.90,21.00
3220.64,32.00
3221.37,0.00
3222.10,53.00
3222.84,53.00
3223.57,42.00
3224.30,43.00
3225.03,10.00
3225.76,-32.00
3226.49,64.00
3227.22,64.00
3227.95,11.00
3228.68,0.00
3229.41,10.00
3230.14,42.00
3230.87,10.00
3231.59,42.00
3232.32,21.00
3233.04,32.00
3233.77,74.00
3234.49,64.00
3235.22,53.00
3235.94,32.00
3236.66,-11.00
3237.39,63.00
3238.11,21.00
3238.83,-32.00
3239.55,0.00
3240.27,11.00
3240.99,10.00
3241.71,53.00
3242.43,43.00
3243.15,32.00
3243.87,0.00
3244.58,53.00
3245.30,85.00
3246.02,43.00
3246.73,11.00
3247.45,0.00
3248.16,0.00
3248.88,-22.00
3249.59,21.00
3250.30,42.00
3251.01,21.00
3251.73,64.00
3252.44,32.00
3253.15,53.00
3253.86,10.00
3254.57,21.00
3255.28,11.00
3255.99,-64.00
3256.70,-21.00
3257.41,53.00
3258.11,64.00
3258.82,85.00
3259.53,95.00
3260.23,32.00
3260.94,0.00
3261.64,42.00
3262.35,11.00
3263.05,64.00
3263.76,21.00
3264.46,53.00
3265.16,64.00
3265.86,0.00
3266.56,22.00
3267.26,10.00
3267.97,-22.00
3268.67,-21.00
3269.36,-10.00
3270.06,43.00
3270.76,32.00
3271.46,31.00
3272.16,53.00
3272.85,0.00
