RamanShift,Intensity
180.91,249.00
183.74,318.00
186.56,392.00
189.39,529.00
192.21,720.00
195.03,953.00
197.84,1238.00
200.66,1673.00
203.47,2181.00
206.28,2668.00
209.09,2997.00
211.89,3273.00
214.70,3664.00
217.50,4014.00
220.30,4182.00
223.10,4257.00
225.89,4405.00
228.69,4448.00
231.48,4447.00
234.27,4500.00
237.05,4521.00
239.84,4564.00
242.62,4490.00
245.40,4458.00
248.18,4447.00
250.96,4289.00
253.73,4268.00
256.51,4278.00
259.28,4215.00
262.05,4076.00
264.81,4055.00
267.58,4098.00
270.34,3950.00
273.10,3992.00
275.86,4109.00
278.61,4013.00
281.37,3992.00
284.12,3982.00
286.87,3993.00
289.62,3992.00
292.36,3949.00
295.11,3939.00
297.85,3992.00
300.59,4056.00
303.33,4003.00
306.06,3982.00
308.80,4056.00
311.53,4098.00
314.26,4034.00
316.99,4003.00
319.71,3971.00
322.44,4035.00
325.16,4003.00
327.88,3939.00
330.59,3949.00
333.31,3992.00
336.02,4034.00
338.73,3982.00
341.44,3928.00
344.15,3897.00
346.86,3876.00
349.56,3907.00
352.26,3918.00
354.96,3865.00
357.66,3918.00
360.35,4023.00
363.05,4108.00
365.74,4034.00
368.43,3929.00
371.12,3918.00
373.80,4035.00
376.48,4108.00
379.17,4077.00
381.85,4077.00
384.52,4214.00
387.20,4204.00
389.87,4087.00
392.54,4034.00
395.21,3982.00
397.88,4045.00
400.55,4119.00
403.21,4077.00
405.87,4119.00
408.53,4151.00
411.19,4056.00
413.84,4056.00
416.50,4088.00
419.15,4056.00
421.80,4066.00
424.45,4088.00
427.10,4056.00
429.74,4066.00
432.38,4088.00
435.02,4002.00
437.66,4034.00
440.30,4087.00
442.93,3992.00
445.56,3939.00
448.19,3981.00
450.82,3907.00
453.45,3950.00
456.07,3950.00
458.70,3960.00
461.32,4055.00
463.94,4045.00
466.55,3960.00
469.17,3960.00
471.78,4013.00
474.39,4045.00
477.00,3981.00
479.61,3971.00
482.22,3992.00
484.82,3833.00
487.42,3865.00
490.02,3897.00
492.62,3950.00
495.21,3971.00
497.81,3949.00
500.40,3876.00
502.99,3865.00
505.58,3939.00
508.17,3907.00
510.75,3875.00
513.33,3929.00
515.91,3844.00
518.49,3801.00
521.07,3801.00
523.65,3823.00
526.22,3790.00
528.79,3749.00
531.36,3780.00
533.93,3727.00
536.49,3748.00
539.06,3759.00
541.62,3812.00
544.18,3865.00
546.74,3749.00
549.30,3748.00
551.85,3780.00
554.40,3801.00
556.95,3833.00
559.50,3823.00
562.05,3823.00
564.59,3791.00
567.14,3642.00
569.68,3696.00
572.22,3759.00
574.76,3738.00
577.29,3695.00
579.83,3738.00
582.36,3653.00
584.89,3653.00
587.42,3727.00
589.95,3558.00
592.47,3495.00
594.99,3611.00
597.52,3653.00
600.04,3632.00
602.55,3643.00
605.07,3663.00
607.58,3579.00
610.09,3505.00
612.60,3547.00
615.11,3632.00
617.62,3642.00
620.12,3675.00
622.63,3685.00
625.13,3611.00
627.63,3547.00
630.13,3495.00
632.62,3526.00
635.12,3548.00
637.61,3558.00
640.10,3516.00
642.59,3378.00
645.07,3410.00
647.56,3420.00
650.04,3378.00
652.52,3442.00
655.00,3441.00
657.48,3410.00
659.96,3421.00
662.43,3378.00
664.90,3367.00
667.37,3378.00
669.84,3346.00
672.31,3357.00
674.78,3368.00
677.24,3389.00
679.70,3399.00
682.16,3293.00
684.62,3251.00
687.08,3293.00
689.53,3336.00
691.98,3378.00
694.43,3357.00
696.88,3188.00
699.33,3156.00
701.78,3208.00
704.22,3230.00
706.66,3241.00
709.10,3219.00
711.54,3198.00
713.98,3135.00
716.42,3166.00
718.85,3251.00
721.28,3304.00
723.71,3325.00
726.14,3336.00
728.57,3356.00
730.99,3378.00
733.41,3442.00
735.83,3303.00
738.25,3241.00
740.67,3113.00
743.09,3113.00
745.50,3123.00
747.91,3113.00
750.33,3039.00
752.73,2986.00
755.14,3071.00
757.55,2986.00
759.95,2922.00
762.35,2965.00
764.75,2997.00
767.15,3018.00
769.55,2986.00
771.95,2976.00
774.34,3007.00
776.73,2997.00
779.12,2986.00
781.51,2891.00
783.90,2870.00
786.28,2933.00
788.67,2933.00
791.05,2881.00
793.43,2870.00
795.80,2891.00
798.18,2943.00
800.56,2901.00
802.93,2869.00
805.30,2860.00
807.67,2817.00
810.04,2807.00
812.40,2828.00
814.77,2817.00
817.13,2838.00
819.49,2838.00
821.85,2881.00
824.21,2807.00
826.57,2711.00
828.92,2742.00
831.27,2763.00
833.63,2711.00
835.98,2690.00
838.32,2743.00
840.67,2754.00
843.01,2711.00
845.36,2721.00
847.70,2732.00
850.04,2763.00
852.37,2742.00
854.71,2743.00
857.05,2679.00
859.38,2627.00
861.71,2605.00
864.04,2679.00
866.37,2711.00
868.69,2637.00
871.02,2605.00
873.34,2594.00
875.66,2563.00
877.98,2615.00
880.30,2541.00
882.62,2552.00
884.93,2541.00
887.24,2531.00
889.55,2616.00
891.86,2637.00
894.17,2521.00
896.48,2446.00
898.78,2415.00
901.09,2478.00
903.39,2531.00
905.69,2552.00
907.99,2594.00
910.28,2605.00
912.58,2552.00
914.87,2499.00
917.16,2404.00
919.45,2520.00
921.74,2637.00
924.03,2520.00
926.31,2446.00
928.60,2447.00
930.88,2467.00
933.16,2404.00
935.44,2436.00
937.72,2382.00
939.99,2361.00
942.26,2404.00
944.54,2372.00
946.81,2362.00
949.08,2415.00
951.34,2361.00
953.61,2404.00
955.87,2435.00
958.14,2457.00
960.40,2393.00
962.66,2362.00
964.92,2425.00
967.17,2372.00
969.43,2329.00
971.68,2287.00
973.93,2245.00
976.18,2203.00
978.43,2234.00
980.68,2234.00
982.92,2139.00
985.17,2223.00
987.41,2287.00
989.65,2288.00
991.89,2245.00
994.12,2203.00
996.36,2181.00
998.59,2192.00
1000.83,2160.00
1003.06,2171.00
1005.29,2192.00
1007.51,2160.00
1009.74,2224.00
1011.97,2192.00
1014.19,2160.00
1016.41,2161.00
1018.63,2128.00
1020.85,2139.00
1023.07,2160.00
1025.28,2181.00
1027.49,2181.00
1029.71,2170.00
1031.92,2139.00
1034.13,2107.00
1036.33,2097.00
1038.54,2118.00
1040.74,2129.00
1042.95,2128.00
1045.15,2097.00
1047.35,2076.00
1049.55,2128.00
1051.74,2086.00
1053.94,2075.00
1056.13,2107.00
1058.32,2129.00
1060.51,2086.00
1062.70,2096.00
1064.89,2097.00
1067.08,2086.00
1069.26,2055.00
1071.44,2044.00
1073.63,2034.00
1075.81,2033.00
1077.98,2044.00
1080.16,1980.00
1082.34,2023.00
1084.51,2012.00
1086.68,1970.00
1088.85,1970.00
1091.02,2034.00
1093.19,2033.00
1095.35,2065.00
1097.52,2064.00
1099.68,2033.00
1101.84,2012.00
1104.00,1948.00
1106.16,1874.00
1108.32,1959.00
1110.48,2033.00
1112.63,2033.00
1114.78,2075.00
1116.93,1991.00
1119.08,1907.00
1121.23,1917.00
1123.38,1917.00
1125.52,1917.00
1127.67,1842.00
1129.81,1885.00
1131.95,1885.00
1134.09,1832.00
1136.22,1874.00
1138.36,1884.00
1140.50,1864.00
1142.63,1864.00
1144.76,1821.00
1146.89,1842.00
1149.02,1853.00
1151.15,1896.00
1153.27,1928.00
1155.40,1843.00
1157.52,1790.00
1159.64,1800.00
1161.76,1811.00
1163.88,1863.00
1165.99,1843.00
1168.11,1863.00
1170.22,1842.00
1172.34,1758.00
1174.45,1811.00
1176.56,1810.00
1178.66,1747.00
1180.77,1758.00
1182.88,1800.00
1184.98,1768.00
1187.08,1694.00
1189.18,1673.00
1191.28,1747.00
1193.38,1789.00
1195.47,1779.00
1197.57,1779.00
1199.66,1779.00
1201.75,1737.00
1203.85,1695.00
1205.93,1769.00
1208.02,1715.00
1210.11,1694.00
1212.19,1736.00
1214.28,1737.00
1216.36,1716.00
1218.44,1779.00
1220.52,1779.00
1222.59,1726.00
1224.67,1652.00
1226.74,1631.00
1228.82,1620.00
1230.89,1704.00
1232.96,1747.00
1235.03,1726.00
1237.10,1737.00
1239.16,1716.00
1241.23,1768.00
1243.29,1779.00
1245.35,1737.00
1247.41,1747.00
1249.47,1704.00
1251.53,1694.00
1253.58,1715.00
1255.64,1673.00
1257.69,1609.00
1259.74,1652.00
1261.79,1684.00
1263.84,1652.00
1265.89,1715.00
1267.93,1684.00
1269.98,1673.00
1272.02,1578.00
1274.06,1599.00
1276.10,1599.00
1278.14,1589.00
1280.18,1673.00
1282.22,1631.00
1284.25,1557.00
1286.28,1599.00
1288.32,1609.00
1290.35,1557.00
1292.38,1567.00
1294.40,1599.00
1296.43,1556.00
1298.46,1578.00
1300.48,1567.00
1302.50,1525.00
1304.52,1546.00
1306.54,1578.00
1308.56,1557.00
1310.58,1568.00
1312.59,1609.00
1314.60,1652.00
1316.62,1589.00
1318.63,1621.00
1320.64,1588.00
1322.65,1588.00
1324.65,1652.00
1326.66,1577.00
1328.66,1620.00
1330.66,1662.00
1332.67,1652.00
1334.67,1620.00
1336.66,1599.00
1338.66,1620.00
1340.66,1588.00
1342.65,1525.00
1344.65,1535.00
1346.64,1588.00
1348.63,1557.00
1350.62,1461.00
1352.60,1504.00
1354.59,1440.00
1356.57,1408.00
1358.56,1472.00
1360.54,1546.00
1362.52,1536.00
1364.50,1556.00
1366.48,1556.00
1368.46,1504.00
1370.43,1451.00
1372.41,1419.00
1374.38,1430.00
1376.35,1441.00
1378.32,1441.00
1380.29,1462.00
1382.25,1472.00
1384.22,1440.00
1386.18,1430.00
1388.15,1430.00
1390.11,1409.00
1392.07,1398.00
1394.03,1323.00
1395.99,1345.00
1397.94,1451.00
1399.90,1461.00
1401.85,1409.00
1403.80,1355.00
1405.76,1418.00
1407.71,1472.00
1409.65,1430.00
1411.60,1356.00
1413.55,1408.00
1415.49,1430.00
1417.44,1419.00
1419.38,1388.00
1421.32,1334.00
1423.26,1323.00
1425.19,1303.00
1427.13,1313.00
1429.07,1345.00
1431.00,1366.00
1432.93,1398.00
1434.86,1397.00
1436.79,1398.00
1438.72,1345.00
1440.65,1292.00
1442.57,1281.00
1444.50,1303.00
1446.42,1281.00
1448.34,1281.00
1450.26,1302.00
1452.18,1292.00
1454.10,1292.00
1456.02,1313.00
1457.93,1313.00
1459.85,1313.00
1461.76,1376.00
1463.67,1355.00
1465.58,1303.00
1467.49,1260.00
1469.40,1197.00
1471.31,1229.00
1473.21,1250.00
1475.11,1218.00
1477.02,1292.00
1478.92,1260.00
1480.82,1250.00
1482.72,1270.00
1484.61,1281.00
1486.51,1196.00
1488.40,1197.00
1490.30,1217.00
1492.19,1239.00
1494.08,1228.00
1495.97,1249.00
1497.86,1175.00
1499.74,1101.00
1501.63,1144.00
1503.51,1196.00
1505.40,1165.00
1507.28,1164.00
1509.16,1207.00
1511.04,1165.00
1512.92,1133.00
1514.79,1176.00
1516.67,1196.00
1518.54,1218.00
1520.42,1228.00
1522.29,1229.00
1524.16,1228.00
1526.03,1228.00
1527.89,1228.00
1529.76,1176.00
1531.63,1154.00
1533.49,1154.00
1535.35,1123.00
1537.21,1144.00
1539.07,1144.00
1540.93,1144.00
1542.79,1080.00
1544.65,1091.00
1546.50,1155.00
1548.36,1112.00
1550.21,1123.00
1552.06,1186.00
1553.91,1123.00
1555.76,1112.00
1557.61,1112.00
1559.45,1144.00
1561.30,1102.00
1563.14,1091.00
1564.98,1070.00
1566.82,1069.00
1568.67,1069.00
1570.50,1049.00
1572.34,1122.00
1574.18,1101.00
1576.01,1080.00
1577.85,1143.00
1579.68,1101.00
1581.51,1006.00
1583.34,985.00
1585.17,1016.00
1587.00,996.00
1588.82,995.00
1590.65,996.00
1592.47,1005.00
1594.30,1005.00
1596.12,974.00
1597.94,1027.00
1599.76,1017.00
1601.57,1017.00
1603.39,1080.00
1605.21,1101.00
1607.02,1080.00
1608.83,1049.00
1610.64,974.00
1612.45,1038.00
1614.26,1059.00
1616.07,1016.00
1617.88,953.00
1619.68,964.00
1621.49,1038.00
1623.29,1017.00
1625.09,975.00
1626.89,1017.00
1628.69,985.00
1630.49,996.00
1632.29,1016.00
1634.08,996.00
1635.88,953.00
1637.67,996.00
1639.46,974.00
1641.25,985.00
1643.04,943.00
1644.83,974.00
1646.62,921.00
1648.41,953.00
1650.19,890.00
1651.97,825.00
1653.76,900.00
1655.54,974.00
1657.32,996.00
1659.10,975.00
1660.88,995.00
1662.65,974.00
1664.43,932.00
1666.20,889.00
1667.97,942.00
1669.75,953.00
1671.52,857.00
1673.29,910.00
1675.05,911.00
1676.82,889.00
1678.59,900.00
1680.35,868.00
1682.11,879.00
1683.88,889.00
1685.64,847.00
1687.40,847.00
1689.16,889.00
1690.91,847.00
1692.67,868.00
1694.42,847.00
1696.18,837.00
1697.93,847.00
1699.68,868.00
1701.43,847.00
1703.18,847.00
1704.93,826.00
1706.68,805.00
1708.42,858.00
1710.17,879.00
1711.91,868.00
1713.65,911.00
1715.39,868.00
1717.13,815.00
1718.87,805.00
1720.61,805.00
1722.35,826.00
1724.08,805.00
1725.81,805.00
1727.55,762.00
1729.28,773.00
1731.01,826.00
1732.74,794.00
1734.47,826.00
1736.19,847.00
1737.92,868.00
1739.64,826.00
1741.37,709.00
1743.09,709.00
1744.81,773.00
1746.53,763.00
1748.25,762.00
1749.97,762.00
1751.68,741.00
1753.40,795.00
1755.11,837.00
1756.83,848.00
1758.54,847.00
1760.25,815.00
1761.96,805.00
1763.67,784.00
1765.38,752.00
1767.08,762.00
1768.79,762.00
1770.49,815.00
1772.19,784.00
1773.90,784.00
1775.60,752.00
1777.30,710.00
1778.99,741.00
1780.69,741.00
1782.39,773.00
1784.08,783.00
1785.78,773.00
1787.47,741.00
1789.16,699.00
1790.85,730.00
1792.54,710.00
1794.23,699.00
1795.91,657.00
1797.60,699.00
1799.28,763.00
1800.97,720.00
1802.65,710.00
1804.33,752.00
1806.01,752.00
1807.69,699.00
1809.37,730.00
1811.05,688.00
1812.72,678.00
1814.40,741.00
1816.07,741.00
1817.74,709.00
1819.41,667.00
1821.08,636.00
1822.75,657.00
1824.42,678.00
1826.09,720.00
1827.75,677.00
1829.42,688.00
1831.08,677.00
1832.74,678.00
1834.40,636.00
1836.06,656.00
1837.72,698.00
1839.38,678.00
1841.04,667.00
1842.69,657.00
1844.35,667.00
1846.00,709.00
1847.65,646.00
1849.30,667.00
1850.95,678.00
1852.60,720.00
1854.25,741.00
1855.90,699.00
1857.54,689.00
1859.19,667.00
1860.83,657.00
1862.47,688.00
1864.12,668.00
1865.76,657.00
1867.40,656.00
1869.03,636.00
1870.67,657.00
1872.31,635.00
1873.94,635.00
1875.57,604.00
1877.21,593.00
1878.84,636.00
1880.47,635.00
1882.10,593.00
1883.73,593.00
1885.35,593.00
1886.98,636.00
1888.61,689.00
1890.23,656.00
1891.85,646.00
1893.47,614.00
1895.09,625.00
1896.71,593.00
1898.33,603.00
1899.95,604.00
1901.57,572.00
1903.18,582.00
1904.80,593.00
1906.41,593.00
1908.02,614.00
1909.63,551.00
1911.24,571.00
1912.85,636.00
1914.46,625.00
1916.07,615.00
1917.67,646.00
1919.28,562.00
1920.88,561.00
1922.48,561.00
1924.08,572.00
1925.68,572.00
1927.28,561.00
1928.88,529.00
1930.48,572.00
1932.07,551.00
1933.67,519.00
1935.26,561.00
1936.86,572.00
1938.45,541.00
1940.04,614.00
1941.63,572.00
1943.22,519.00
1944.80,561.00
1946.39,550.00
1947.98,582.00
1949.56,593.00
1951.14,508.00
1952.73,519.00
1954.31,550.00
1955.89,572.00
1957.47,603.00
1959.05,540.00
1960.62,530.00
1962.20,487.00
1963.77,551.00
1965.35,572.00
1966.92,519.00
1968.49,529.00
1970.06,593.00
1971.63,593.00
1973.20,509.00
1974.77,508.00
1976.34,498.00
1977.90,509.00
1979.47,530.00
1981.03,519.00
1982.59,540.00
1984.15,529.00
1985.71,487.00
1987.27,509.00
1988.83,540.00
1990.39,508.00
1991.94,509.00
1993.50,509.00
1995.05,530.00
1996.61,508.00
1998.16,465.00
1999.71,487.00
2001.26,487.00
2002.81,497.00
2004.36,540.00
2005.91,529.00
2007.45,508.00
2009.00,508.00
2010.54,487.00
2012.08,498.00
2013.62,519.00
2015.17,466.00
2016.71,518.00
2018.24,487.00
2019.78,477.00
2021.32,424.00
2022.85,488.00
2024.39,456.00
2025.92,413.00
2027.46,424.00
2028.99,487.00
2030.52,488.00
2032.05,476.00
2033.58,508.00
2035.10,508.00
2036.63,519.00
2038.16,530.00
2039.68,498.00
2041.21,530.00
2042.73,508.00
2044.25,445.00
2045.77,466.00
2047.29,476.00
2048.81,508.00
2050.33,508.00
2051.84,508.00
2053.36,487.00
2054.87,498.00
2056.39,456.00
2057.90,413.00
2059.41,434.00
2060.92,498.00
2062.43,476.00
2063.94,423.00
2065.45,391.00
2066.95,424.00
2068.46,487.00
2069.96,487.00
2071.47,424.00
2072.97,403.00
2074.47,413.00
2075.97,423.00
2077.47,423.00
2078.97,424.00
2080.47,424.00
2081.96,434.00
2083.46,424.00
2084.95,381.00
2086.45,413.00
2087.94,403.00
2089.43,382.00
2090.92,402.00
2092.41,445.00
2093.90,424.00
2095.39,402.00
2096.88,392.00
2098.36,402.00
2099.85,413.00
2101.33,445.00
2102.81,403.00
2104.30,382.00
2105.78,434.00
2107.26,466.00
2108.74,424.00
2110.21,371.00
2111.69,349.00
2113.17,392.00
2114.64,392.00
2116.12,360.00
2117.59,371.00
2119.06,413.00
2120.53,403.00
2122.00,381.00
2123.47,413.00
2124.94,392.00
2126.41,339.00
2127.87,360.00
2129.34,360.00
2130.80,392.00
2132.27,392.00
2133.73,349.00
2135.19,339.00
2136.65,349.00
2138.11,349.00
2139.57,350.00
2141.03,339.00
2142.48,339.00
2143.94,402.00
2145.39,424.00
2146.85,402.00
2148.30,370.00
2149.75,381.00
2151.20,403.00
2152.65,360.00
2154.10,350.00
2155.55,350.00
2157.00,350.00
2158.44,392.00
2159.89,413.00
2161.33,403.00
2162.78,360.00
2164.22,339.00
2165.66,349.00
2167.10,381.00
2168.54,371.00
2169.98,360.00
2171.42,328.00
2172.85,338.00
2174.29,360.00
2175.72,339.00
2177.16,296.00
2178.59,339.00
2180.02,350.00
2181.45,349.00
2182.88,360.00
2184.31,381.00
2185.74,317.00
2187.17,349.00
2188.59,286.00
2190.02,276.00
2191.44,339.00
2192.87,360.00
2194.29,338.00
2195.71,350.00
2197.13,381.00
2198.55,371.00
2199.97,370.00
2201.39,339.00
2202.81,318.00
2204.22,329.00
2205.64,317.00
2207.05,328.00
2208.46,339.00
2209.88,328.00
2211.29,339.00
2212.70,296.00
2214.11,329.00
2215.52,360.00
2216.92,360.00
2218.33,339.00
2219.74,286.00
2221.14,286.00
2222.54,296.00
2223.95,276.00
2225.35,307.00
2226.75,318.00
2228.15,318.00
2229.55,318.00
2230.95,349.00
2232.35,350.00
2233.74,328.00
2235.14,307.00
2236.53,349.00
2237.93,328.00
2239.32,285.00
2240.71,339.00
2242.10,317.00
2243.49,318.00
2244.88,349.00
2246.27,318.00
2247.66,317.00
2249.04,297.00
2250.43,318.00
2251.81,285.00
2253.20,275.00
2254.58,233.00
2255.96,254.00
2257.34,265.00
2258.72,275.00
2260.10,275.00
2261.48,296.00
2262.86,286.00
2264.23,286.00
2265.61,254.00
2266.98,265.00
2268.36,338.00
2269.73,328.00
2271.10,307.00
2272.47,286.00
2273.84,307.00
2275.21,339.00
2276.58,329.00
2277.95,360.00
2279.31,339.00
2280.68,286.00
2282.05,254.00
2283.41,275.00
2284.77,275.00
2286.13,307.00
2287.50,254.00
2288.86,255.00
2290.22,255.00
2291.57,255.00
2292.93,254.00
2294.29,265.00
2295.64,286.00
2297.00,275.00
2298.35,275.00
2299.71,329.00
2301.06,254.00
2302.41,212.00
2303.76,233.00
2305.11,264.00
2306.46,254.00
2307.81,265.00
2309.15,265.00
2310.50,317.00
2311.84,286.00
2313.19,254.00
2314.53,254.00
2315.87,254.00
2317.22,254.00
2318.56,317.00
2319.90,329.00
2321.24,275.00
2322.57,275.00
2323.91,254.00
2325.25,286.00
2326.58,275.00
2327.92,254.00
2329.25,212.00
2330.58,211.00
2331.91,255.00
2333.25,254.00
2334.58,212.00
2335.90,254.00
2337.23,254.00
2338.56,276.00
2339.89,297.00
2341.21,264.00
2342.54,254.00
2343.86,191.00
2345.19,244.00
2346.51,233.00
2347.83,244.00
2349.15,275.00
2350.47,243.00
2351.79,233.00
2353.11,275.00
2354.42,254.00
2355.74,190.00
2357.06,190.00
2358.37,244.00
2359.68,254.00
2361.00,265.00
2362.31,254.00
2363.62,244.00
2364.93,264.00
2366.24,244.00
2367.55,233.00
2368.86,201.00
2370.16,212.00
2371.47,201.00
2372.77,233.00
2374.08,264.00
2375.38,265.00
2376.68,233.00
2377.98,190.00
2379.29,233.00
2380.59,233.00
2381.88,212.00
2383.18,212.00
2384.48,254.00
2385.78,212.00
2387.07,254.00
2388.37,255.00
2389.66,297.00
2390.95,275.00
2392.25,265.00
2393.54,233.00
2394.83,201.00
2396.12,243.00
2397.41,254.00
2398.70,254.00
2399.98,191.00
2401.27,170.00
2402.55,212.00
2403.84,191.00
2405.12,233.00
2406.41,201.00
2407.69,212.00
2408.97,255.00
2410.25,243.00
2411.53,244.00
2412.81,233.00
2414.09,233.00
2415.36,191.00
2416.64,180.00
2417.91,254.00
2419.19,254.00
2420.46,244.00
2421.74,243.00
2423.01,233.00
2424.28,212.00
2425.55,211.00
2426.82,202.00
2428.09,170.00
2429.36,180.00
2430.62,201.00
2431.89,212.00
2433.15,233.00
2434.42,222.00
2435.68,243.00
2436.94,233.00
2438.21,190.00
2439.47,223.00
2440.73,233.00
2441.99,223.00
2443.25,244.00
2444.51,212.00
2445.76,244.00
2447.02,233.00
2448.27,191.00
2449.53,233.00
2450.78,212.00
2452.03,212.00
2453.29,202.00
2454.54,254.00
2455.79,243.00
2457.04,191.00
2458.29,180.00
2459.54,223.00
2460.78,222.00
2462.03,149.00
2463.27,148.00
2464.52,170.00
2465.76,170.00
2467.01,170.00
2468.25,222.00
2469.49,255.00
2470.73,212.00
2471.97,180.00
2473.21,201.00
2474.45,159.00
2475.69,148.00
2476.92,169.00
2478.16,223.00
2479.39,201.00
2480.63,233.00
2481.86,254.00
2483.09,254.00
2484.32,222.00
2485.56,180.00
2486.79,191.00
2488.02,170.00
2489.24,202.00
2490.47,243.00
2491.70,212.00
2492.92,169.00
2494.15,169.00
2495.37,233.00
2496.60,180.00
2497.82,148.00
2499.04,138.00
2500.26,180.00
2501.48,149.00
2502.70,96.00
2503.92,138.00
2505.14,169.00
2506.36,191.00
2507.58,191.00
2508.79,180.00
2510.01,159.00
2511.22,137.00
2512.43,148.00
2513.64,201.00
2514.86,170.00
2516.07,159.00
2517.28,148.00
2518.49,117.00
2519.70,127.00
2520.90,148.00
2522.11,169.00
2523.32,180.00
2524.52,170.00
2525.73,169.00
2526.93,190.00
2528.13,170.00
2529.33,191.00
2530.54,191.00
2531.74,191.00
2532.94,159.00
2534.14,180.00
2535.33,212.00
2536.53,170.00
2537.73,169.00
2538.92,159.00
2540.12,138.00
2541.31,95.00
2542.51,106.00
2543.70,138.00
2544.89,170.00
2546.08,128.00
2547.27,138.00
2548.46,128.00
2549.65,148.00
2550.84,149.00
2552.03,159.00
2553.21,138.00
2554.40,149.00
2555.58,169.00
2556.77,148.00
2557.95,137.00
2559.13,169.00
2560.31,169.00
2561.50,180.00
2562.68,127.00
2563.85,169.00
2565.03,191.00
2566.21,170.00
2567.39,180.00
2568.56,191.00
2569.74,170.00
2570.91,170.00
2572.09,128.00
2573.26,191.00
2574.43,180.00
2575.61,202.00
2576.78,191.00
2577.95,127.00
2579.12,138.00
2580.29,191.00
2581.45,233.00
2582.62,159.00
2583.79,137.00
2584.95,149.00
2586.12,138.00
2587.28,84.00
2588.44,84.00
2589.61,106.00
2590.77,180.00
2591.93,170.00
2593.09,170.00
2594.25,159.00
2595.41,159.00
2596.56,190.00
2597.72,170.00
2598.88,95.00
2600.03,149.00
2601.19,170.00
2602.34,127.00
2603.50,117.00
2604.65,105.00
2605.80,106.00
2606.95,127.00
2608.10,85.00
2609.25,96.00
2610.40,117.00
2611.55,128.00
2612.70,116.00
2613.84,127.00
2614.99,117.00
2616.13,148.00
2617.28,201.00
2618.42,180.00
2619.56,169.00
2620.71,106.00
2621.85,138.00
2622.99,149.00
2624.13,106.00
2625.27,127.00
2626.40,159.00
2627.54,191.00
2628.68,159.00
2629.81,127.00
2630.95,85.00
2632.08,106.00
2633.22,138.00
2634.35,169.00
2635.48,159.00
2636.61,127.00
2637.74,148.00
2638.87,149.00
2640.00,159.00
2641.13,170.00
2642.26,148.00
2643.39,117.00
2644.51,138.00
2645.64,117.00
2646.76,127.00
2647.89,117.00
2649.01,128.00
2650.13,117.00
2651.25,128.00
2652.38,170.00
2653.50,128.00
2654.62,138.00
2655.73,117.00
2656.85,127.00
2657.97,116.00
2659.09,127.00
2660.20,106.00
2661.32,137.00
2662.43,180.00
2663.55,148.00
2664.66,148.00
2665.77,170.00
2666.88,170.00
2667.99,148.00
2669.10,138.00
2670.21,159.00
2671.32,169.00
2672.43,106.00
2673.54,148.00
2674.64,138.00
2675.75,116.00
2676.85,106.00
2677.96,106.00
2679.06,85.00
2680.16,85.00
2681.26,85.00
2682.37,95.00
2683.47,64.00
2684.57,127.00
2685.66,170.00
2686.76,127.00
2687.86,128.00
2688.96,95.00
2690.05,106.00
2691.15,148.00
2692.24,95.00
2693.34,85.00
2694.43,84.00
2695.52,138.00
2696.62,159.00
2697.71,106.00
2698.80,64.00
2699.89,96.00
2700.98,106.00
2702.06,106.00
2703.15,106.00
2704.24,85.00
2705.32,106.00
2706.41,85.00
2707.49,137.00
2708.58,159.00
2709.66,148.00
2710.74,158.00
2711.83,106.00
2712.91,74.00
2713.99,63.00
2715.07,42.00
2716.15,105.00
2717.22,127.00
2718.30,127.00
2719.38,96.00
2720.45,96.00
2721.53,95.00
2722.60,116.00
2723.68,149.00
2724.75,106.00
2725.82,64.00
2726.89,85.00
2727.97,85.00
2729.04,106.00
2730.11,127.00
2731.17,95.00
2732.24,84.00
2733.31,64.00
2734.38,74.00
2735.44,106.00
2736.51,63.00
2737.57,42.00
2738.64,106.00
2739.70,84.00
2740.76,85.00
2741.82,64.00
2742.89,85.00
2743.95,84.00
2745.01,42.00
2746.07,53.00
2747.12,117.00
2748.18,116.00
2749.24,106.00
2750.29,95.00
2751.35,106.00
2752.40,106.00
2753.46,106.00
2754.51,85.00
2755.57,74.00
2756.62,85.00
2757.67,95.00
2758.72,85.00
2759.77,106.00
2760.82,116.00
2761.87,64.00
2762.91,31.00
2763.96,64.00
2765.01,95.00
2766.05,105.00
2767.10,106.00
2768.14,85.00
2769.19,127.00
2770.23,127.00
2771.27,106.00
2772.31,106.00
2773.35,84.00
2774.40,74.00
2775.43,117.00
2776.47,137.00
2777.51,127.00
2778.55,74.00
2779.59,64.00
2780.62,63.00
2781.66,96.00
2782.69,74.00
2783.73,74.00
2784.76,84.00
2785.79,95.00
2786.82,32.00
2787.85,116.00
2788.89,170.00
2789.92,106.00
2790.94,106.00
2791.97,127.00
2793.00,95.00
2794.03,53.00
2795.05,95.00
2796.08,116.00
2797.11,106.00
2798.13,117.00
2799.15,106.00
2800.18,138.00
2801.20,64.00
2802.22,95.00
2803.24,116.00
2804.26,127.00
2805.28,95.00
2806.30,43.00
2807.32,52.00
2808.34,96.00
2809.35,95.00
2810.37,138.00
2811.39,117.00
2812.40,85.00
2813.41,64.00
2814.43,53.00
2815.44,85.00
2816.45,85.00
2817.46,85.00
2818.48,85.00
2819.49,85.00
2820.49,63.00
2821.50,22.00
2822.51,64.00
2823.52,74.00
2824.53,106.00
2825.53,64.00
2826.54,32.00
2827.54,84.00
2828.55,64.00
2829.55,63.00
2830.55,53.00
2831.55,63.00
2832.56,64.00
2833.56,106.00
2834.56,63.00
2835.56,42.00
2836.56,64.00
2837.55,106.00
2838.55,127.00
2839.55,85.00
2840.54,75.00
2841.54,63.00
2842.53,64.00
2843.53,96.00
2844.52,85.00
2845.51,74.00
2846.51,21.00
2847.50,42.00
2848.49,63.00
2849.48,106.00
2850.47,105.00
2851.46,53.00
2852.45,53.00
2853.43,74.00
2854.42,85.00
2855.41,74.00
2856.39,53.00
2857.38,64.00
2858.36,85.00
2859.34,21.00
2860.33,52.00
2861.31,52.00
2862.29,64.00
2863.27,106.00
2864.25,116.00
2865.23,137.00
2866.21,85.00
2867.19,53.00
2868.17,74.00
2869.14,85.00
2870.12,43.00
2871.09,106.00
2872.07,127.00
2873.04,95.00
2874.02,85.00
2874.99,74.00
2875.96,64.00
2876.93,63.00
2877.91,74.00
2878.88,74.00
2879.85,42.00
2880.82,84.00
2881.78,96.00
2882.75,53.00
2883.72,85.00
2884.69,64.00
2885.65,63.00
2886.62,31.00
2887.58,42.00
2888.55,53.00
2889.51,63.00
2890.47,64.00
2891.43,43.00
2892.39,64.00
2893.36,42.00
2894.31,85.00
2895.27,85.00
2896.23,42.00
2897.19,105.00
2898.15,84.00
2899.11,95.00
2900.06,84.00
2901.02,63.00
2901.97,63.00
2902.93,84.00
2903.88,32.00
2904.83,53.00
2905.79,63.00
2906.74,53.00
2907.69,43.00
2908.64,42.00
2909.59,11.00
2910.54,42.00
2911.49,106.00
2912.43,106.00
2913.38,106.00
2914.33,64.00
2915.27,85.00
2916.22,116.00
2917.16,85.00
2918.11,43.00
2919.05,64.00
2919.99,74.00
2920.94,74.00
2921.88,42.00
2922.82,53.00
2923.76,74.00
2924.70,127.00
2925.64,64.00
2926.58,84.00
2927.51,95.00
2928.45,64.00
2929.39,31.00
2930.32,32.00
2931.26,106.00
2932.19,32.00
2933.13,53.00
2934.06,106.00
2934.99,64.00
2935.92,0.00
2936.86,53.00
2937.79,106.00
2938.72,85.00
2939.65,64.00
2940.57,75.00
2941.50,85.00
2942.43,96.00
2943.36,106.00
2944.28,106.00
2945.21,64.00
2946.13,32.00
2947.06,21.00
2947.98,63.00
2948.91,84.00
2949.83,85.00
2950.75,84.00
2951.67,95.00
2952.59,127.00
2953.51,95.00
2954.43,95.00
2955.35,74.00
2956.27,42.00
2957.19,53.00
2958.10,64.00
2959.02,32.00
2959.94,0.00
2960.85,0.00
2961.77,53.00
2962.68,64.00
2963.59,84.00
2964.51,43.00
2965.42,-10.00
2966.33,63.00
2967.24,63.00
2968.15,43.00
2969.06,32.00
2969.97,63.00
2970.88,53.00
2971.78,63.00
2972.69,127.00
2973.60,95.00
2974.50,84.00
2975.41,74.00
2976.31,43.00
2977.22,21.00
2978.12,32.00
2979.02,85.00
2979.93,85.00
2980.83,42.00
2981.73,105.00
2982.63,85.00
2983.53,84.00
2984.43,95.00
2985.33,85.00
2986.22,64.00
2987.12,42.00
2988.02,52.00
2988.91,63.00
2989.81,42.00
2990.70,0.00
2991.60,-21.00
2992.49,42.00
2993.38,53.00
2994.28,42.00
2995.17,74.00
2996.06,32.00
2996.95,53.00
2997.84,21.00
2998.73,10.00
2999.62,63.00
3000.51,32.00
3001.40,64.00
3002.28,63.00
3003.17,75.00
3004.05,22.00
3004.94,11.00
3005.82,42.00
3006.71,0.00
3007.59,10.00
3008.47,22.00
3009.36,0.00
3010.24,42.00
3011.12,21.00
3012.00,-21.00
3012.88,0.00
3013.76,85.00
3014.64,85.00
3015.51,53.00
3016.39,31.00
3017.27,63.00
3018.14,32.00
3019.02,21.00
3019.89,43.00
3020.77,53.00
3021.64,52.00
3022.52,53.00
3023.39,0.00
3024.26,0.00
3025.13,52.00
3026.00,31.00
3026.87,11.00
3027.74,42.00
3028.61,32.00
3029.48,21.00
3030.35,64.00
3031.21,42.00
3032.08,0.00
3032.95,0.00
3033.81,53.00
3034.68,85.00
3035.54,85.00
3036.40,63.00
3037.27,64.00
3038.13,43.00
3038.99,21.00
3039.85,42.00
3040.71,42.00
3041.57,43.00
3042.43,22.00
3043.29,95.00
3044.15,53.00
3045.01,-42.00
3045.86,0.00
3046.72,-11.00
3047.58,10.00
3048.43,53.00
3049.29,31.00
3050.14,21.00
3050.99,-21.00
3051.85,10.00
3052.70,43.00
3053.55,42.00
3054.40,74.00
3055.25,106.00
3056.10,116.00
3056.95,32.00
3057.80,0.00
3058.65,11.00
3059.50,53.00
3060.34,53.00
3061.19,95.00
3062.04,95.00
3062.88,63.00
3063.73,32.00
3064.57,43.00
3065.42,42.00
3066.26,42.00
3067.10,21.00
3067.94,42.00
3068.78,42.00
3069.63,0.00
3070.47,21.00
3071.31,31.00
3072.14,21.00
3072.98,43.00
3073.82,53.00
3074.66,-21.00
3075.49,-11.00
3076.33,-10.00
3077.17,10.00
3078.00,42.00
3078.83,53.00
3079.67,85.00
3080.50,64.00
3081.33,74.00
3082.17,63.00
3083.00,42.00
3083.83,21.00
3084.66,43.00
3085.49,64.00
3086.32,0.00
3087.15,-42.00
3087.97,10.00
3088.80,42.00
3089.63,42.00
3090.46,85.00
3091.28,32.00
3092.11,52.00
3092.93,43.00
3093.75,-43.00
3094.58,21.00
3095.40,43.00
3096.22,63.00
3097.05,42.00
3097.87,0.00
3098.69,-43.00
3099.51,10.00
3100.33,0.00
3101.15,10.00
3101.96,43.00
3102.78,21.00
3103.60,21.00
3104.42,21.00
3105.23,21.00
3106.05,42.00
3106.86,63.00
3107.68,31.00
3108.49,-22.00
3109.30,-11.00
3110.12,-11.00
3110.93,63.00
3111.74,43.00
3112.55,63.00
3113.36,42.00
3114.17,53.00
3114.98,52.00
3115.79,10.00
3116.60,21.00
3117.40,63.00
3118.21,0.00
3119.02,0.00
3119.82,43.00
3120.63,10.00
3121.43,42.00
3122.24,11.00
3123.04,-32.00
3123.84,42.00
3124.65,-10.00
3125.45,10.00
3126.25,43.00
3127.05,53.00
3127.85,-21.00
3128.65,53.00
3129.45,21.00
3130.25,21.00
3131.05,22.00
3131.84,42.00
3132.64,21.00
3133.44,0.00
3134.23,21.00
3135.03,-10.00
3135.82,22.00
3136.62,53.00
3137.41,21.00
3138.20,42.00
3139.00,63.00
3139.79,63.00
3140.58,21.00
3141.37,10.00
3142.16,42.00
3142.95,84.00
3143.74,75.00
3144.53,63.00
3145.32,74.00
3146.10,21.00
3146.89,11.00
3147.68,-11.00
3148.46,53.00
3149.25,21.00
3150.03,-10.00
3150.82,-10.00
3151.60,0.00
3152.38,21.00
3153.17,64.00
3153.95,64.00
3154.73,85.00
3155.51,21.00
3156.29,21.00
3157.07,-21.00
3157.85,21.00
3158.63,-21.00
3159.41,10.00
3160.18,0.00
3160.96,10.00
3161.74,42.00
3162.51,63.00
3163.29,21.00
3164.06,-21.00
3164.84,0.00
3165.61,21.00
3166.38,42.00
3167.16,85.00
3167.93,75.00
3168.70,64.00
3169.47,21.00
3170.24,0.00
3171.01,42.00
3171.78,53.00
3172.55,10.00
3173.32,11.00
3174.09,0.00
3174.85,10.00
3175.62,10.00
3176.39,63.00
3177.15,63.00
3177.92,22.00
3178.68,43.00
3179.45,85.00
3180.21,53.00
3180.97,53.00
3181.73,53.00
3182.50,21.00
3183.26,75.00
3184.02,106.00
3184.78,64.00
3185.54,85.00
3186.30,84.00
3187.05,32.00
3187.81,53.00
3188.57,43.00
3189.33,-42.00
3190.08,-32.00
3190.84,0.00
3191.59,0.00
3192.35,32.00
3193.10,53.00
3193.86,32.00
3194.61,21.00
3195.36,32.00
3196.12,63.00
3196.87,21.00
3197.62,0.00
3198.37,32.00
3199.12,32.00
3199.87,105.00
3200.62,85.00
3201.36,42.00
3202.11,42.00
3202.86,32.00
3203.61,-32.00
3204.35,53.00
3205.10,106.00
3205.84,-21.00
3206.59,11.00
3207.33,0.00
3208.08,-10.00
3208.82,42.00
3209.56,32.00
3210.30,53.00
3211.05,0.00
3211.79,0.00
3212.53,21.00
3213.27,10.00
3214.01,0.00
3214.75,42.00
3215.48,22.00
3216.22,21.00
3216.96,42.00
3217.69,21.00
3218.43,63.00
3219.17,32.00
3219.90,31.00
3220.64,31.00
3221.37,43.00
3222.10,-21.00
3222.84,11.00
3223.57,74.00
3224.30,42.00
3225.03,11.00
3225.76,0.00
3226.49,22.00
3227.22,21.00
3227.95,-10.00
3228.68,21.00
3229.41,0.00
3230.14,-21.00
3230.87,64.00
3231.59,10.00
3232.32,22.00
3233.04,31.00
3233.77,0.00
3234.49,43.00
3235.22,21.00
3235.94,74.00
3236.66,75.00
3237.39,31.00
3238.11,22.00
3238.83,0.00
3239.55,-10.00
3240.27,32.00
3240.99,32.00
3241.71,22.00
3242.43,0.00
3243.15,32.00
3243.87,74.00
3244.58,21.00
3245.30,10.00
3246.02,-21.00
3246.73,-31.00
3247.45,32.00
3248.16,105.00
3248.88,85.00
3249.59,75.00
3250.30,32.00
3251.01,53.00
3251.73,21.00
3252.44,53.00
3253.15,11.00
3253.86,-21.00
3254.57,74.00
3255.28,63.00
3255.99,95.00
3256.70,64.00
3257.41,43.00
3258.11,21.00
3258.82,-11.00
3259.53,-43.00
3260.23,0.00
3260.94,42.00
3261.64,64.00
3262.35,21.00
3263.05,-10.00
3263.76,-32.00
3264.46,21.00
3265.16,42.00
3265.86,-11.00
3266.56,32.00
3267.26,31.00
3267.97,0.00
3268.67,10.00
3269.36,42.00
3270.06,10.00
3270.76,0.00
3271.46,42.00
3272.16,42.00
3272.85,0.00
