RamanShift,Intensity
180.91,111.00
183.74,169.00
186.56,296.00
189.39,371.00
192.21,445.00
195.03,551.00
197.84,688.00
200.66,858.00
203.47,1133.00
206.28,1228.00
209.09,1271.00
211.89,1377.00
214.70,1503.00
217.50,1599.00
220.30,1578.00
223.10,1631.00
225.89,1705.00
228.69,1716.00
231.48,1789.00
234.27,1991.00
237.05,1917.00
239.84,1747.00
242.62,1747.00
245.40,1726.00
248.18,1652.00
250.96,1620.00
253.73,1556.00
256.51,1525.00
259.28,1515.00
262.05,1451.00
264.81,1366.00
267.58,1345.00
270.34,1387.00
273.10,1313.00
275.86,1271.00
278.61,1282.00
281.37,1249.00
284.12,1281.00
286.87,1271.00
289.62,1239.00
292.36,1207.00
295.11,1260.00
297.85,1239.00
300.59,1260.00
303.33,1282.00
306.06,1239.00
308.80,1218.00
311.53,1270.00
314.26,1344.00
316.99,1260.00
319.71,1270.00
322.44,1260.00
325.16,1303.00
327.88,1313.00
330.59,1271.00
333.31,1249.00
336.02,1218.00
338.73,1207.00
341.44,1218.00
344.15,1260.00
346.86,1144.00
349.56,1165.00
352.26,1155.00
354.96,1164.00
357.66,1186.00
360.35,1196.00
363.05,1143.00
365.74,1112.00
368.43,1196.00
371.12,1239.00
373.80,1207.00
376.48,1165.00
379.17,1207.00
381.85,1239.00
384.52,1239.00
387.20,1218.00
389.87,1260.00
392.54,1229.00
395.21,1175.00
397.88,1144.00
400.55,1175.00
403.21,1228.00
405.87,1196.00
408.53,1270.00
411.19,1249.00
413.84,1249.00
416.50,1271.00
419.15,1281.00
421.80,1270.00
424.45,1270.00
427.10,1207.00
429.74,1228.00
432.38,1281.00
435.02,1260.00
437.66,1217.00
440.30,1228.00
442.93,1239.00
445.56,1239.00
448.19,1270.00
450.82,1228.00
453.45,1144.00
456.07,1165.00
458.70,1207.00
461.32,1207.00
463.94,1218.00
466.55,1217.00
469.17,1207.00
471.78,1218.00
474.39,1228.00
477.00,1260.00
479.61,1250.00
482.22,1207.00
484.82,1101.00
487.42,1196.00
490.02,1250.00
492.62,1281.00
495.21,1314.00
497.81,1250.00
500.40,1175.00
502.99,1197.00
505.58,1196.00
508.17,1144.00
510.75,1144.00
513.33,1186.00
515.91,1196.00
518.49,1175.00
521.07,1196.00
523.65,1228.00
526.22,1207.00
528.79,1229.00
531.36,1207.00
533.93,1123.00
536.49,1133.00
539.06,1143.00
541.62,1133.00
544.18,1165.00
546.74,1165.00
549.30,1154.00
551.85,1154.00
554.40,1123.00
556.95,1123.00
559.50,1112.00
562.05,1112.00
564.59,1102.00
567.14,1080.00
569.68,1122.00
572.22,1165.00
574.76,1186.00
577.29,1165.00
579.83,1186.00
582.36,1122.00
584.89,1123.00
587.42,1112.00
589.95,1049.00
592.47,1112.00
594.99,1133.00
597.52,1123.00
600.04,1175.00
602.55,1111.00
605.07,1101.00
607.58,1133.00
610.09,1038.00
612.60,1091.00
615.11,1112.00
617.62,1123.00
620.12,1144.00
622.63,1133.00
625.13,1090.00
627.63,1059.00
630.13,1038.00
632.62,1069.00
635.12,1059.00
637.61,1080.00
640.10,1037.00
642.59,1038.00
645.07,1091.00
647.56,1070.00
650.04,1070.00
652.52,1091.00
655.00,1090.00
657.48,1102.00
659.96,1102.00
662.43,1091.00
664.90,1081.00
667.37,1048.00
669.84,1027.00
672.31,1006.00
674.78,1070.00
677.24,1038.00
679.70,1059.00
682.16,1027.00
684.62,1017.00
687.08,995.00
689.53,974.00
691.98,1049.00
694.43,996.00
696.88,1038.00
699.33,985.00
701.78,1038.00
704.22,1070.00
706.66,995.00
709.10,995.00
711.54,1017.00
713.98,1006.00
716.42,1017.00
718.85,1059.00
721.28,1070.00
723.71,1165.00
726.14,1165.00
728.57,1196.00
730.99,1281.00
733.41,1271.00
735.83,1186.00
738.25,1133.00
740.67,1058.00
743.09,963.00
745.50,985.00
747.91,1006.00
750.33,963.00
752.73,942.00
755.14,996.00
757.55,953.00
759.95,931.00
762.35,985.00
764.75,921.00
767.15,922.00
769.55,868.00
771.95,932.00
774.34,964.00
776.73,900.00
779.12,921.00
781.51,963.00
783.90,974.00
786.28,985.00
788.67,922.00
791.05,890.00
793.43,911.00
795.80,869.00
798.18,815.00
800.56,858.00
802.93,868.00
805.30,911.00
807.67,932.00
810.04,911.00
812.40,985.00
814.77,932.00
817.13,953.00
819.49,942.00
821.85,868.00
824.21,857.00
826.57,878.00
828.92,848.00
831.27,848.00
833.63,921.00
835.98,921.00
838.32,900.00
840.67,879.00
843.01,879.00
845.36,889.00
847.70,847.00
850.04,795.00
852.37,869.00
854.71,857.00
857.05,816.00
859.38,826.00
861.71,858.00
864.04,816.00
866.37,868.00
868.69,868.00
871.02,911.00
873.34,889.00
875.66,837.00
877.98,794.00
880.30,784.00
882.62,710.00
884.93,730.00
887.24,762.00
889.55,826.00
891.86,837.00
894.17,826.00
896.48,826.00
898.78,825.00
901.09,752.00
903.39,784.00
905.69,794.00
907.99,762.00
910.28,752.00
912.58,741.00
914.87,742.00
917.16,773.00
919.45,805.00
921.74,837.00
924.03,815.00
926.31,784.00
928.60,783.00
930.88,752.00
933.16,742.00
935.44,773.00
937.72,742.00
939.99,751.00
942.26,815.00
944.54,773.00
946.81,762.00
949.08,773.00
951.34,731.00
953.61,826.00
955.87,836.00
958.14,815.00
960.40,795.00
962.66,773.00
964.92,784.00
967.17,698.00
969.43,742.00
971.68,763.00
973.93,720.00
976.18,699.00
978.43,720.00
980.68,709.00
982.92,677.00
985.17,731.00
987.41,762.00
989.65,773.00
991.89,730.00
994.12,741.00
996.36,741.00
998.59,763.00
1000.83,709.00
1003.06,667.00
1005.29,656.00
1007.51,625.00
1009.74,646.00
1011.97,678.00
1014.19,720.00
1016.41,730.00
1018.63,688.00
1020.85,668.00
1023.07,678.00
1025.28,688.00
1027.49,688.00
1029.71,741.00
1031.92,763.00
1034.13,752.00
1036.33,731.00
1038.54,657.00
1040.74,667.00
1042.95,731.00
1045.15,742.00
1047.35,762.00
1049.55,699.00
1051.74,657.00
1053.94,678.00
1056.13,689.00
1058.32,667.00
1060.51,646.00
1062.70,636.00
1064.89,614.00
1067.08,657.00
1069.26,636.00
1071.44,635.00
1073.63,657.00
1075.81,615.00
1077.98,656.00
1080.16,636.00
1082.34,678.00
1084.51,657.00
1086.68,593.00
1088.85,646.00
1091.02,646.00
1093.19,657.00
1095.35,593.00
1097.52,614.00
1099.68,720.00
1101.84,741.00
1104.00,667.00
1106.16,635.00
1108.32,614.00
1110.48,550.00
1112.63,562.00
1114.78,614.00
1116.93,614.00
1119.08,635.00
1121.23,614.00
1123.38,635.00
1125.52,625.00
1127.67,604.00
1129.81,582.00
1131.95,572.00
1134.09,625.00
1136.22,604.00
1138.36,635.00
1140.50,646.00
1142.63,615.00
1144.76,593.00
1146.89,615.00
1149.02,635.00
1151.15,540.00
1153.27,550.00
1155.40,572.00
1157.52,550.00
1159.64,551.00
1161.76,572.00
1163.88,636.00
1165.99,582.00
1168.11,519.00
1170.22,572.00
1172.34,614.00
1174.45,583.00
1176.56,572.00
1178.66,572.00
1180.77,603.00
1182.88,646.00
1184.98,657.00
1187.08,551.00
1189.18,519.00
1191.28,508.00
1193.38,572.00
1195.47,593.00
1197.57,614.00
1199.66,593.00
1201.75,572.00
1203.85,583.00
1205.93,593.00
1208.02,572.00
1210.11,582.00
1212.19,540.00
1214.28,540.00
1216.36,583.00
1218.44,572.00
1220.52,593.00
1222.59,614.00
1224.67,593.00
1226.74,604.00
1228.82,635.00
1230.89,582.00
1232.96,603.00
1235.03,572.00
1237.10,540.00
1239.16,593.00
1241.23,593.00
1243.29,572.00
1245.35,583.00
1247.41,572.00
1249.47,593.00
1251.53,551.00
1253.58,529.00
1255.64,561.00
1257.69,551.00
1259.74,529.00
1261.79,561.00
1263.84,572.00
1265.89,488.00
1267.93,487.00
1269.98,529.00
1272.02,540.00
1274.06,551.00
1276.10,551.00
1278.14,519.00
1280.18,561.00
1282.22,550.00
1284.25,550.00
1286.28,561.00
1288.32,508.00
1290.35,529.00
1292.38,519.00
1294.40,498.00
1296.43,509.00
1298.46,561.00
1300.48,561.00
1302.50,519.00
1304.52,529.00
1306.54,519.00
1308.56,561.00
1310.58,593.00
1312.59,551.00
1314.60,593.00
1316.62,582.00
1318.63,551.00
1320.64,593.00
1322.65,593.00
1324.65,615.00
1326.66,593.00
1328.66,582.00
1330.66,667.00
1332.67,667.00
1334.67,593.00
1336.66,593.00
1338.66,625.00
1340.66,636.00
1342.65,615.00
1344.65,540.00
1346.64,529.00
1348.63,550.00
1350.62,487.00
1352.60,508.00
1354.59,487.00
1356.57,487.00
1358.56,529.00
1360.54,498.00
1362.52,509.00
1364.50,519.00
1366.48,466.00
1368.46,476.00
1370.43,455.00
1372.41,476.00
1374.38,519.00
1376.35,466.00
1378.32,476.00
1380.29,487.00
1382.25,445.00
1384.22,551.00
1386.18,530.00
1388.15,487.00
1390.11,518.00
1392.07,456.00
1394.03,477.00
1395.99,509.00
1397.94,519.00
1399.90,466.00
1401.85,466.00
1403.80,498.00
1405.76,488.00
1407.71,508.00
1409.65,508.00
1411.60,466.00
1413.55,466.00
1415.49,445.00
1417.44,477.00
1419.38,466.00
1421.32,445.00
1423.26,487.00
1425.19,424.00
1427.13,392.00
1429.07,434.00
1431.00,445.00
1432.93,424.00
1434.86,434.00
1436.79,424.00
1438.72,423.00
1440.65,487.00
1442.57,456.00
1444.50,423.00
1446.42,423.00
1448.34,434.00
1450.26,456.00
1452.18,498.00
1454.10,445.00
1456.02,509.00
1457.93,530.00
1459.85,530.00
1461.76,498.00
1463.67,477.00
1465.58,466.00
1467.49,509.00
1469.40,530.00
1471.31,456.00
1473.21,434.00
1475.11,424.00
1477.02,403.00
1478.92,413.00
1480.82,445.00
1482.72,456.00
1484.61,476.00
1486.51,508.00
1488.40,488.00
1490.30,434.00
1492.19,444.00
1494.08,423.00
1495.97,456.00
1497.86,413.00
1499.74,434.00
1501.63,498.00
1503.51,413.00
1505.40,403.00
1507.28,477.00
1509.16,445.00
1511.04,445.00
1512.92,455.00
1514.79,413.00
1516.67,381.00
1518.54,456.00
1520.42,423.00
1522.29,402.00
1524.16,403.00
1526.03,424.00
1527.89,456.00
1529.76,392.00
1531.63,434.00
1533.49,424.00
1535.35,424.00
1537.21,402.00
1539.07,402.00
1540.93,360.00
1542.79,402.00
1544.65,402.00
1546.50,424.00
1548.36,402.00
1550.21,360.00
1552.06,360.00
1553.91,381.00
1555.76,413.00
1557.61,424.00
1559.45,381.00
1561.30,360.00
1563.14,349.00
1564.98,328.00
1566.82,371.00
1568.67,381.00
1570.50,339.00
1572.34,350.00
1574.18,423.00
1576.01,402.00
1577.85,349.00
1579.68,307.00
1581.51,318.00
1583.34,349.00
1585.17,371.00
1587.00,381.00
1588.82,392.00
1590.65,423.00
1592.47,455.00
1594.30,413.00
1596.12,381.00
1597.94,392.00
1599.76,381.00
1601.57,318.00
1603.39,329.00
1605.21,360.00
1607.02,360.00
1608.83,339.00
1610.64,350.00
1612.45,338.00
1614.26,318.00
1616.07,307.00
1617.88,318.00
1619.68,317.00
1621.49,297.00
1623.29,328.00
1625.09,318.00
1626.89,317.00
1628.69,285.00
1630.49,318.00
1632.29,370.00
1634.08,371.00
1635.88,339.00
1637.67,296.00
1639.46,317.00
1641.25,339.00
1643.04,360.00
1644.83,381.00
1646.62,360.00
1648.41,381.00
1650.19,328.00
1651.97,296.00
1653.76,297.00
1655.54,296.00
1657.32,317.00
1659.10,360.00
1660.88,318.00
1662.65,360.00
1664.43,328.00
1666.20,318.00
1667.97,307.00
1669.75,318.00
1671.52,339.00
1673.29,318.00
1675.05,307.00
1676.82,307.00
1678.59,297.00
1680.35,317.00
1682.11,349.00
1683.88,339.00
1685.64,286.00
1687.40,339.00
1689.16,360.00
1690.91,328.00
1692.67,339.00
1694.42,350.00
1696.18,318.00
1697.93,275.00
1699.68,296.00
1701.43,317.00
1703.18,275.00
1704.93,307.00
1706.68,275.00
1708.42,264.00
1710.17,275.00
1711.91,276.00
1713.65,338.00
1715.39,297.00
1717.13,286.00
1718.87,297.00
1720.61,286.00
1722.35,275.00
1724.08,286.00
1725.81,265.00
1727.55,275.00
1729.28,307.00
1731.01,275.00
1732.74,233.00
1734.47,265.00
1736.19,275.00
1737.92,339.00
1739.64,360.00
1741.37,360.00
1743.09,297.00
1744.81,254.00
1746.53,307.00
1748.25,360.00
1749.97,307.00
1751.68,286.00
1753.40,276.00
1755.11,275.00
1756.83,254.00
1758.54,243.00
1760.25,243.00
1761.96,254.00
1763.67,265.00
1765.38,254.00
1767.08,254.00
1768.79,296.00
1770.49,307.00
1772.19,265.00
1773.90,265.00
1775.60,276.00
1777.30,286.00
1778.99,254.00
1780.69,254.00
1782.39,222.00
1784.08,254.00
1785.78,307.00
1787.47,307.00
1789.16,307.00
1790.85,286.00
1792.54,212.00
1794.23,223.00
1795.91,233.00
1797.60,255.00
1799.28,244.00
1800.97,254.00
1802.65,254.00
1804.33,254.00
1806.01,296.00
1807.69,339.00
1809.37,286.00
1811.05,254.00
1812.72,244.00
1814.40,265.00
1816.07,286.00
1817.74,276.00
1819.41,233.00
1821.08,255.00
1822.75,244.00
1824.42,233.00
1826.09,275.00
1827.75,254.00
1829.42,254.00
1831.08,254.00
1832.74,222.00
1834.40,201.00
1836.06,211.00
1837.72,254.00
1839.38,307.00
1841.04,286.00
1842.69,254.00
1844.35,212.00
1846.00,222.00
1847.65,212.00
1849.30,233.00
1850.95,212.00
1852.60,212.00
1854.25,211.00
1855.90,222.00
1857.54,233.00
1859.19,191.00
1860.83,180.00
1862.47,233.00
1864.12,191.00
1865.76,201.00
1867.40,244.00
1869.03,297.00
1870.67,244.00
1872.31,212.00
1873.94,212.00
1875.57,212.00
1877.21,170.00
1878.84,180.00
1880.47,222.00
1882.10,255.00
1883.73,233.00
1885.35,191.00
1886.98,233.00
1888.61,212.00
1890.23,222.00
1891.85,233.00
1893.47,212.00
1895.09,201.00
1896.71,222.00
1898.33,233.00
1899.95,233.00
1901.57,191.00
1903.18,212.00
1904.80,244.00
1906.41,222.00
1908.02,180.00
1909.63,191.00
1911.24,212.00
1912.85,233.00
1914.46,201.00
1916.07,190.00
1917.67,190.00
1919.28,170.00
1920.88,170.00
1922.48,180.00
1924.08,243.00
1925.68,233.00
1927.28,211.00
1928.88,223.00
1930.48,233.00
1932.07,202.00
1933.67,222.00
1935.26,212.00
1936.86,127.00
1938.45,116.00
1940.04,158.00
1941.63,191.00
1943.22,190.00
1944.80,191.00
1946.39,191.00
1947.98,190.00
1949.56,201.00
1951.14,180.00
1952.73,169.00
1954.31,180.00
1955.89,149.00
1957.47,159.00
1959.05,180.00
1960.62,169.00
1962.20,169.00
1963.77,222.00
1965.35,244.00
1966.92,233.00
1968.49,212.00
1970.06,170.00
1971.63,233.00
1973.20,211.00
1974.77,170.00
1976.34,138.00
1977.90,191.00
1979.47,212.00
1981.03,191.00
1982.59,180.00
1984.15,170.00
1985.71,159.00
1987.27,202.00
1988.83,254.00
1990.39,244.00
1991.94,233.00
1993.50,170.00
1995.05,138.00
1996.61,170.00
1998.16,190.00
1999.71,191.00
2001.26,190.00
2002.81,201.00
2004.36,202.00
2005.91,148.00
2007.45,138.00
2009.00,180.00
2010.54,169.00
2012.08,191.00
2013.62,170.00
2015.17,170.00
2016.71,212.00
2018.24,190.00
2019.78,212.00
2021.32,148.00
2022.85,148.00
2024.39,159.00
2025.92,169.00
2027.46,191.00
2028.99,191.00
2030.52,158.00
2032.05,138.00
2033.58,170.00
2035.10,201.00
2036.63,223.00
2038.16,223.00
2039.68,191.00
2041.21,222.00
2042.73,180.00
2044.25,170.00
2045.77,170.00
2047.29,148.00
2048.81,170.00
2050.33,148.00
2051.84,149.00
2053.36,223.00
2054.87,190.00
2056.39,138.00
2057.90,180.00
2059.41,148.00
2060.92,169.00
2062.43,201.00
2063.94,169.00
2065.45,158.00
2066.95,148.00
2068.46,191.00
2069.96,212.00
2071.47,149.00
2072.97,191.00
2074.47,191.00
2075.97,212.00
2077.47,190.00
2078.97,201.00
2080.47,212.00
2081.96,170.00
2083.46,180.00
2084.95,180.00
2086.45,212.00
2087.94,170.00
2089.43,149.00
2090.92,169.00
2092.41,137.00
2093.90,149.00
2095.39,180.00
2096.88,201.00
2098.36,170.00
2099.85,127.00
2101.33,106.00
2102.81,127.00
2104.30,148.00
2105.78,127.00
2107.26,149.00
2108.74,149.00
2110.21,159.00
2111.69,169.00
2113.17,149.00
2114.64,127.00
2116.12,180.00
2117.59,149.00
2119.06,138.00
2120.53,95.00
2122.00,95.00
2123.47,127.00
2124.94,117.00
2126.41,159.00
2127.87,127.00
2129.34,191.00
2130.80,117.00
2132.27,96.00
2133.73,149.00
2135.19,149.00
2136.65,169.00
2138.11,127.00
2139.57,95.00
2141.03,138.00
2142.48,116.00
2143.94,85.00
2145.39,106.00
2146.85,148.00
2148.30,180.00
2149.75,159.00
2151.20,95.00
2152.65,106.00
2154.10,127.00
2155.55,117.00
2157.00,148.00
2158.44,117.00
2159.89,85.00
2161.33,138.00
2162.78,106.00
2164.22,95.00
2165.66,84.00
2167.10,148.00
2168.54,106.00
2169.98,148.00
2171.42,170.00
2172.85,127.00
2174.29,159.00
2175.72,170.00
2177.16,159.00
2178.59,148.00
2180.02,117.00
2181.45,169.00
2182.88,148.00
2184.31,127.00
2185.74,149.00
2187.17,106.00
2188.59,106.00
2190.02,170.00
2191.44,127.00
2192.87,138.00
2194.29,158.00
2195.71,159.00
2197.13,138.00
2198.55,148.00
2199.97,116.00
2201.39,106.00
2202.81,127.00
2204.22,159.00
2205.64,148.00
2207.05,116.00
2208.46,63.00
2209.88,63.00
2211.29,85.00
2212.70,127.00
2214.11,127.00
2215.52,127.00
2216.92,106.00
2218.33,127.00
2219.74,117.00
2221.14,138.00
2222.54,117.00
2223.95,84.00
2225.35,96.00
2226.75,85.00
2228.15,117.00
2229.55,116.00
2230.95,106.00
2232.35,95.00
2233.74,190.00
2235.14,180.00
2236.53,116.00
2237.93,137.00
2239.32,148.00
2240.71,116.00
2242.10,105.00
2243.49,106.00
2244.88,159.00
2246.27,106.00
2247.66,64.00
2249.04,106.00
2250.43,117.00
2251.81,95.00
2253.20,127.00
2254.58,117.00
2255.96,127.00
2257.34,117.00
2258.72,117.00
2260.10,95.00
2261.48,127.00
2262.86,117.00
2264.23,106.00
2265.61,74.00
2266.98,64.00
2268.36,95.00
2269.73,137.00
2271.10,127.00
2272.47,106.00
2273.84,95.00
2275.21,127.00
2276.58,106.00
2277.95,74.00
2279.31,85.00
2280.68,96.00
2282.05,138.00
2283.41,127.00
2284.77,21.00
2286.13,10.00
2287.50,42.00
2288.86,96.00
2290.22,63.00
2291.57,63.00
2292.93,106.00
2294.29,106.00
2295.64,96.00
2297.00,84.00
2298.35,106.00
2299.71,117.00
2301.06,106.00
2302.41,95.00
2303.76,96.00
2305.11,85.00
2306.46,95.00
2307.81,116.00
2309.15,159.00
2310.50,106.00
2311.84,63.00
2313.19,74.00
2314.53,84.00
2315.87,138.00
2317.22,96.00
2318.56,106.00
2319.90,117.00
2321.24,85.00
2322.57,95.00
2323.91,106.00
2325.25,106.00
2326.58,169.00
2327.92,149.00
2329.25,95.00
2330.58,85.00
2331.91,74.00
2333.25,106.00
2334.58,117.00
2335.90,159.00
2337.23,106.00
2338.56,95.00
2339.89,84.00
2341.21,85.00
2342.54,96.00
2343.86,127.00
2345.19,63.00
2346.51,106.00
2347.83,75.00
2349.15,42.00
2350.47,53.00
2351.79,138.00
2353.11,138.00
2354.42,84.00
2355.74,95.00
2357.06,116.00
2358.37,127.00
2359.68,106.00
2361.00,85.00
2362.31,117.00
2363.62,148.00
2364.93,105.00
2366.24,85.00
2367.55,63.00
2368.86,74.00
2370.16,85.00
2371.47,74.00
2372.77,106.00
2374.08,74.00
2375.38,42.00
2376.68,96.00
2377.98,74.00
2379.29,95.00
2380.59,84.00
2381.88,106.00
2383.18,117.00
2384.48,106.00
2385.78,85.00
2387.07,106.00
2388.37,84.00
2389.66,95.00
2390.95,106.00
2392.25,138.00
2393.54,95.00
2394.83,43.00
2396.12,53.00
2397.41,21.00
2398.70,42.00
2399.98,85.00
2401.27,85.00
2402.55,74.00
2403.84,106.00
2405.12,85.00
2406.41,85.00
2407.69,85.00
2408.97,106.00
2410.25,116.00
2411.53,106.00
2412.81,117.00
2414.09,149.00
2415.36,148.00
2416.64,106.00
2417.91,85.00
2419.19,63.00
2420.46,106.00
2421.74,105.00
2423.01,117.00
2424.28,159.00
2425.55,74.00
2426.82,64.00
2428.09,85.00
2429.36,85.00
2430.62,63.00
2431.89,43.00
2433.15,105.00
2434.42,138.00
2435.68,127.00
2436.94,63.00
2438.21,63.00
2439.47,106.00
2440.73,63.00
2441.99,84.00
2443.25,64.00
2444.51,74.00
2445.76,128.00
2447.02,106.00
2448.27,74.00
2449.53,43.00
2450.78,43.00
2452.03,84.00
2453.29,127.00
2454.54,116.00
2455.79,106.00
2457.04,138.00
2458.29,106.00
2459.54,42.00
2460.78,42.00
2462.03,64.00
2463.27,85.00
2464.52,84.00
2465.76,21.00
2467.01,64.00
2468.25,85.00
2469.49,53.00
2470.73,74.00
2471.97,95.00
2473.21,64.00
2474.45,53.00
2475.69,53.00
2476.92,96.00
2478.16,85.00
2479.39,85.00
2480.63,43.00
2481.86,84.00
2483.09,74.00
2484.32,32.00
2485.56,64.00
2486.79,116.00
2488.02,64.00
2489.24,32.00
2490.47,42.00
2491.70,53.00
2492.92,106.00
2494.15,127.00
2495.37,96.00
2496.60,85.00
2497.82,106.00
2499.04,53.00
2500.26,0.00
2501.48,0.00
2502.70,64.00
2503.92,85.00
2505.14,74.00
2506.36,117.00
2507.58,106.00
2508.79,32.00
2510.01,64.00
2511.22,85.00
2512.43,85.00
2513.64,74.00
2514.86,63.00
2516.07,53.00
2517.28,84.00
2518.49,64.00
2519.70,32.00
2520.90,63.00
2522.11,32.00
2523.32,32.00
2524.52,64.00
2525.73,42.00
2526.93,32.00
2528.13,63.00
2529.33,42.00
2530.54,64.00
2531.74,42.00
2532.94,53.00
2534.14,64.00
2535.33,85.00
2536.53,85.00
2537.73,85.00
2538.92,85.00
2540.12,85.00
2541.31,64.00
2542.51,85.00
2543.70,42.00
2544.89,11.00
2546.08,0.00
2547.27,43.00
2548.46,53.00
2549.65,42.00
2550.84,21.00
2552.03,11.00
2553.21,53.00
2554.40,42.00
2555.58,10.00
2556.77,10.00
2557.95,42.00
2559.13,21.00
2560.31,53.00
2561.50,106.00
2562.68,74.00
2563.85,42.00
2565.03,85.00
2566.21,64.00
2567.39,74.00
2568.56,32.00
2569.74,11.00
2570.91,74.00
2572.09,106.00
2573.26,106.00
2574.43,74.00
2575.61,43.00
2576.78,96.00
2577.95,74.00
2579.12,32.00
2580.29,63.00
2581.45,53.00
2582.62,32.00
2583.79,53.00
2584.95,84.00
2586.12,85.00
2587.28,42.00
2588.44,52.00
2589.61,63.00
2590.77,85.00
2591.93,127.00
2593.09,63.00
2594.25,42.00
2595.41,74.00
2596.56,32.00
2597.72,42.00
2598.88,84.00
2600.03,63.00
2601.19,85.00
2602.34,64.00
2603.50,53.00
2604.65,63.00
2605.80,43.00
2606.95,74.00
2608.10,42.00
2609.25,21.00
2610.40,42.00
2611.55,63.00
2612.70,74.00
2613.84,43.00
2614.99,74.00
2616.13,64.00
2617.28,63.00
2618.42,85.00
2619.56,53.00
2620.71,63.00
2621.85,95.00
2622.99,74.00
2624.13,96.00
2625.27,21.00
2626.40,11.00
2627.54,42.00
2628.68,32.00
2629.81,22.00
2630.95,43.00
2632.08,96.00
2633.22,64.00
2634.35,43.00
2635.48,43.00
2636.61,43.00
2637.74,32.00
2638.87,42.00
2640.00,85.00
2641.13,43.00
2642.26,32.00
2643.39,85.00
2644.51,85.00
2645.64,106.00
2646.76,74.00
2647.89,32.00
2649.01,53.00
2650.13,32.00
2651.25,32.00
2652.38,85.00
2653.50,95.00
2654.62,74.00
2655.73,43.00
2656.85,53.00
2657.97,42.00
2659.09,10.00
2660.20,10.00
2661.32,32.00
2662.43,21.00
2663.55,53.00
2664.66,64.00
2665.77,85.00
2666.88,74.00
2667.99,53.00
2669.10,53.00
2670.21,53.00
2671.32,21.00
2672.43,42.00
2673.54,74.00
2674.64,32.00
2675.75,32.00
2676.85,43.00
2677.96,11.00
2679.06,21.00
2680.16,21.00
2681.26,42.00
2682.37,63.00
2683.47,42.00
2684.57,43.00
2685.66,53.00
2686.76,21.00
2687.86,53.00
2688.96,42.00
2690.05,0.00
2691.15,21.00
2692.24,32.00
2693.34,85.00
2694.43,63.00
2695.52,42.00
2696.62,63.00
2697.71,22.00
2698.80,64.00
2699.89,85.00
2700.98,74.00
2702.06,74.00
2703.15,43.00
2704.24,74.00
2705.32,64.00
2706.41,64.00
2707.49,22.00
2708.58,53.00
2709.66,85.00
2710.74,43.00
2711.83,53.00
2712.91,43.00
2713.99,64.00
2715.07,32.00
2716.15,21.00
2717.22,42.00
2718.30,21.00
2719.38,43.00
2720.45,64.00
2721.53,42.00
2722.60,53.00
2723.68,85.00
2724.75,74.00
2725.82,85.00
2726.89,64.00
2727.97,21.00
2729.04,22.00
2730.11,43.00
2731.17,32.00
2732.24,0.00
2733.31,22.00
2734.38,74.00
2735.44,85.00
2736.51,64.00
2737.57,74.00
2738.64,63.00
2739.70,0.00
2740.76,63.00
2741.82,32.00
2742.89,52.00
2743.95,42.00
2745.01,64.00
2746.07,74.00
2747.12,63.00
2748.18,64.00
2749.24,43.00
2750.29,85.00
2751.35,106.00
2752.40,106.00
2753.46,43.00
2754.51,22.00
2755.57,43.00
2756.62,42.00
2757.67,43.00
2758.72,-21.00
2759.77,0.00
2760.82,0.00
2761.87,42.00
2762.91,21.00
2763.96,21.00
2765.01,43.00
2766.05,53.00
2767.10,64.00
2768.14,43.00
2769.19,-10.00
2770.23,11.00
2771.27,31.00
2772.31,63.00
2773.35,42.00
2774.40,64.00
2775.43,53.00
2776.47,43.00
2777.51,63.00
2778.55,22.00
2779.59,21.00
2780.62,11.00
2781.66,43.00
2782.69,21.00
2783.73,22.00
2784.76,10.00
2785.79,42.00
2786.82,42.00
2787.85,21.00
2788.89,42.00
2789.92,32.00
2790.94,53.00
2791.97,0.00
2793.00,10.00
2794.03,21.00
2795.05,21.00
2796.08,63.00
2797.11,74.00
2798.13,63.00
2799.15,42.00
2800.18,32.00
2801.20,21.00
2802.22,42.00
2803.24,42.00
2804.26,0.00
2805.28,52.00
2806.30,63.00
2807.32,53.00
2808.34,63.00
2809.35,42.00
2810.37,64.00
2811.39,21.00
2812.40,11.00
2813.41,43.00
2814.43,21.00
2815.44,42.00
2816.45,43.00
2817.46,53.00
2818.48,53.00
2819.49,63.00
2820.49,21.00
2821.50,22.00
2822.51,21.00
2823.52,0.00
2824.53,0.00
2825.53,10.00
2826.54,53.00
2827.54,42.00
2828.55,43.00
2829.55,21.00
2830.55,0.00
2831.55,21.00
2832.56,32.00
2833.56,21.00
2834.56,-42.00
2835.56,-21.00
2836.56,42.00
2837.55,21.00
2838.55,21.00
2839.55,43.00
2840.54,0.00
2841.54,53.00
2842.53,95.00
2843.53,74.00
2844.52,85.00
2845.51,53.00
2846.51,11.00
2847.50,53.00
2848.49,21.00
2849.48,32.00
2850.47,32.00
2851.46,0.00
2852.45,-21.00
2853.43,22.00
2854.42,0.00
2855.41,11.00
2856.39,42.00
2857.38,85.00
2858.36,85.00
2859.34,63.00
2860.33,31.00
2861.31,52.00
2862.29,43.00
2863.27,64.00
2864.25,52.00
2865.23,42.00
2866.21,53.00
2867.19,42.00
2868.17,10.00
2869.14,43.00
2870.12,63.00
2871.09,63.00
2872.07,84.00
2873.04,74.00
2874.02,85.00
2874.99,64.00
2875.96,43.00
2876.93,64.00
2877.91,42.00
2878.88,21.00
2879.85,42.00
2880.82,74.00
2881.78,74.00
2882.75,64.00
2883.72,63.00
2884.69,53.00
2885.65,74.00
2886.62,21.00
2887.58,74.00
2888.55,95.00
2889.51,21.00
2890.47,0.00
2891.43,42.00
2892.39,43.00
2893.36,63.00
2894.31,0.00
2895.27,-10.00
2896.23,-10.00
2897.19,0.00
2898.15,21.00
2899.11,32.00
2900.06,43.00
2901.02,11.00
2901.97,10.00
2902.93,85.00
2903.88,74.00
2904.83,53.00
2905.79,21.00
2906.74,0.00
2907.69,21.00
2908.64,42.00
2909.59,-11.00
2910.54,21.00
2911.49,10.00
2912.43,10.00
2913.38,0.00
2914.33,-22.00
2915.27,-32.00
2916.22,-32.00
2917.16,43.00
2918.11,43.00
2919.05,42.00
2919.99,21.00
2920.94,22.00
2921.88,63.00
2922.82,63.00
2923.76,21.00
2924.70,0.00
2925.64,32.00
2926.58,42.00
2927.51,64.00
2928.45,10.00
2929.39,-11.00
2930.32,0.00
2931.26,53.00
2932.19,21.00
2933.13,42.00
2934.06,74.00
2934.99,64.00
2935.92,43.00
2936.86,64.00
2937.79,32.00
2938.72,21.00
2939.65,74.00
2940.57,75.00
2941.50,64.00
2942.43,21.00
2943.36,42.00
2944.28,22.00
2945.21,11.00
2946.13,21.00
2947.06,31.00
2947.98,-10.00
2948.91,10.00
2949.83,53.00
2950.75,42.00
2951.67,53.00
2952.59,42.00
2953.51,22.00
2954.43,32.00
2955.35,42.00
2956.27,0.00
2957.19,21.00
2958.10,10.00
2959.02,63.00
2959.94,64.00
2960.85,21.00
2961.77,-21.00
2962.68,0.00
2963.59,0.00
2964.51,-11.00
2965.42,21.00
2966.33,43.00
2967.24,21.00
2968.15,53.00
2969.06,64.00
2969.97,75.00
2970.88,43.00
2971.78,10.00
2972.69,53.00
2973.60,42.00
2974.50,52.00
2975.41,21.00
2976.31,43.00
2977.22,-21.00
2978.12,21.00
2979.02,21.00
2979.93,42.00
2980.83,32.00
2981.73,43.00
2982.63,0.00
2983.53,-32.00
2984.43,21.00
2985.33,74.00
2986.22,0.00
2987.12,0.00
2988.02,0.00
2988.91,0.00
2989.81,0.00
2990.70,21.00
2991.60,0.00
2992.49,0.00
2993.38,-53.00
2994.28,10.00
2995.17,85.00
2996.06,53.00
2996.95,10.00
2997.84,0.00
2998.73,42.00
2999.62,10.00
3000.51,-22.00
3001.40,-31.00
3002.28,-42.00
3003.17,-53.00
3004.05,10.00
3004.94,21.00
3005.82,0.00
3006.71,0.00
3007.59,-31.00
3008.47,-32.00
3009.36,32.00
3010.24,63.00
3011.12,21.00
3012.00,-11.00
3012.88,21.00
3013.76,53.00
3014.64,0.00
3015.51,-22.00
3016.39,-11.00
3017.27,22.00
3018.14,42.00
3019.02,21.00
3019.89,-11.00
3020.77,21.00
3021.64,11.00
3022.52,21.00
3023.39,43.00
3024.26,0.00
3025.13,0.00
3026.00,0.00
3026.87,-32.00
3027.74,0.00
3028.61,0.00
3029.48,-10.00
3030.35,21.00
3031.21,43.00
3032.08,42.00
3032.95,-21.00
3033.81,11.00
3034.68,32.00
3035.54,0.00
3036.40,-10.00
3037.27,32.00
3038.13,32.00
3038.99,52.00
3039.85,53.00
3040.71,-32.00
3041.57,21.00
3042.43,75.00
3043.29,63.00
3044.15,63.00
3045.01,74.00
3045.86,43.00
3046.72,74.00
3047.58,42.00
3048.43,0.00
3049.29,21.00
3050.14,32.00
3050.99,63.00
3051.85,85.00
3052.70,85.00
3053.55,21.00
3054.40,53.00
3055.25,74.00
3056.10,22.00
3056.95,0.00
3057.80,-21.00
3058.65,0.00
3059.50,11.00
3060.34,32.00
3061.19,21.00
3062.04,42.00
3062.88,43.00
3063.73,42.00
3064.57,32.00
3065.42,42.00
3066.26,21.00
3067.10,-10.00
3067.94,21.00
3068.78,21.00
3069.63,32.00
3070.47,84.00
3071.31,0.00
3072.14,-11.00
3072.98,53.00
3073.82,85.00
3074.66,21.00
3075.49,53.00
3076.33,84.00
3077.17,32.00
3078.00,-21.00
3078.83,-32.00
3079.67,0.00
3080.50,-10.00
3081.33,-53.00
3082.17,-21.00
3083.00,21.00
3083.83,10.00
3084.66,-42.00
3085.49,-22.00
3086.32,52.00
3087.15,32.00
3087.97,0.00
3088.80,-42.00
3089.63,-21.00
3090.46,0.00
3091.28,0.00
3092.11,21.00
3092.93,0.00
3093.75,43.00
3094.58,11.00
3095.40,-43.00
3096.22,-42.00
3097.05,-21.00
3097.87,-21.00
3098.69,-22.00
3099.51,0.00
3100.33,22.00
3101.15,0.00
3101.96,53.00
3102.78,53.00
3103.60,32.00
3104.42,32.00
3105.23,0.00
3106.05,-32.00
3106.86,0.00
3107.68,42.00
3108.49,85.00
3109.30,10.00
3110.12,0.00
3110.93,-21.00
3111.74,11.00
3112.55,42.00
3113.36,42.00
3114.17,53.00
3114.98,31.00
3115.79,42.00
3116.60,21.00
3117.40,10.00
3118.21,32.00
3119.02,42.00
3119.82,-21.00
3120.63,-10.00
3121.43,0.00
3122.24,0.00
3123.04,21.00
3123.84,43.00
3124.65,32.00
3125.45,21.00
3126.25,42.00
3127.05,21.00
3127.85,10.00
3128.65,43.00
3129.45,11.00
3130.25,-53.00
3131.05,21.00
3131.84,21.00
3132.64,-32.00
3133.44,-64.00
3134.23,-10.00
3135.03,0.00
3135.82,21.00
3136.62,22.00
3137.41,0.00
3138.20,-21.00
3139.00,10.00
3139.79,0.00
3140.58,32.00
3141.37,-32.00
3142.16,0.00
3142.95,74.00
3143.74,74.00
3144.53,10.00
3145.32,0.00
3146.10,0.00
3146.89,0.00
3147.68,10.00
3148.46,32.00
3149.25,10.00
3150.03,21.00
3150.82,75.00
3151.60,53.00
3152.38,64.00
3153.17,21.00
3153.95,22.00
3154.73,21.00
3155.51,0.00
3156.29,11.00
3157.07,0.00
3157.85,0.00
3158.63,43.00
3159.41,11.00
3160.18,-21.00
3160.96,0.00
3161.74,-11.00
3162.51,42.00
3163.29,21.00
3164.06,0.00
3164.84,0.00
3165.61,10.00
3166.38,0.00
3167.16,0.00
3167.93,-43.00
3168.70,-21.00
3169.47,32.00
3170.24,32.00
3171.01,53.00
3171.78,-10.00
3172.55,-43.00
3173.32,0.00
3174.09,-10.00
3174.85,0.00
3175.62,0.00
3176.39,0.00
3177.15,0.00
3177.92,-32.00
3178.68,0.00
3179.45,21.00
3180.21,85.00
3180.97,21.00
3181.73,0.00
3182.50,53.00
3183.26,-11.00
3184.02,0.00
3184.78,-10.00
3185.54,-21.00
3186.30,0.00
3187.05,42.00
3187.81,64.00
3188.57,0.00
3189.33,0.00
3190.08,10.00
3190.84,21.00
3191.59,53.00
3192.35,64.00
3193.10,22.00
3193.86,-11.00
3194.61,74.00
3195.36,75.00
3196.12,53.00
3196.87,31.00
3197.62,10.00
3198.37,64.00
3199.12,95.00
3199.87,42.00
3200.62,53.00
3201.36,11.00
3202.11,-11.00
3202.86,21.00
3203.61,31.00
3204.35,10.00
3205.10,42.00
3205.84,42.00
3206.59,0.00
3207.33,43.00
3208.08,106.00
3208.82,42.00
3209.56,21.00
3210.30,32.00
3211.05,53.00
3211.79,21.00
3212.53,0.00
3213.27,-21.00
3214.01,-11.00
3214.75,63.00
3215.48,53.00
3216.22,-21.00
3216.96,-21.00
3217.69,42.00
3218.43,74.00
3219.17,43.00
3219.90,0.00
3220.64,-21.00
3221.37,-53.00
3222.10,-21.00
3222.84,32.00
3223.57,53.00
3224.30,21.00
3225.03,-11.00
3225.76,-53.00
3226.49,-42.00
3227.22,-21.00
3227.95,32.00
3228.68,64.00
3229.41,53.00
3230.14,32.00
3230.87,-10.00
3231.59,42.00
3232.32,-11.00
3233.04,0.00
3233.77,0.00
3234.49,-42.00
3235.22,-21.00
3235.94,0.00
3236.66,21.00
3237.39,43.00
3238.11,11.00
3238.83,10.00
3239.55,0.00
3240.27,11.00
3240.99,21.00
3241.71,22.00
3242.43,-10.00
3243.15,0.00
3243.87,11.00
3244.58,53.00
3245.30,10.00
3246.02,-11.00
3246.73,-11.00
3247.45,0.00
3248.16,42.00
3248.88,53.00
3249.59,42.00
3250.30,0.00
3251.01,-21.00
3251.73,43.00
3252.44,95.00
3253.15,21.00
3253.86,-52.00
3254.57,-21.00
3255.28,-32.00
3255.99,-11.00
3256.70,-10.00
3257.41,0.00
3258.11,32.00
3258.82,-11.00
3259.53,32.00
3260.23,74.00
3260.94,21.00
3261.64,0.00
3262.35,-42.00
3263.05,22.00
3263.76,21.00
3264.46,42.00
3265.16,0.00
3265.86,22.00
3266.56,0.00
3267.26,53.00
3267.97,42.00
3268.67,0.00
3269.36,43.00
3270.06,96.00
3270.76,21.00
3271.46,-52.00
3272.16,0.00
3272.85,0.00
