RamanShift,Intensity
180.91,322.00
183.74,381.00
186.56,466.00
189.39,604.00
192.21,815.00
195.03,1186.00
197.84,1694.00
200.66,2415.00
203.47,3145.00
206.28,3791.00
209.09,4500.00
211.89,5083.00
214.70,5591.00
217.50,6004.00
220.30,6280.00
223.10,6523.00
225.89,6565.00
228.69,6512.00
231.48,6714.00
234.27,6914.00
237.05,6915.00
239.84,6819.00
242.62,6756.00
245.40,6777.00
248.18,6650.00
250.96,6512.00
253.73,6364.00
256.51,6280.00
259.28,6141.00
262.05,6036.00
264.81,6110.00
267.58,6079.00
270.34,5983.00
273.10,5887.00
275.86,5845.00
278.61,5718.00
281.37,5675.00
284.12,5750.00
286.87,5792.00
289.62,5718.00
292.36,5686.00
295.11,5676.00
297.85,5676.00
300.59,5686.00
303.33,5644.00
306.06,5676.00
308.80,5898.00
311.53,5909.00
314.26,5792.00
316.99,5686.00
319.71,5697.00
322.44,5707.00
325.16,5750.00
327.88,5728.00
330.59,5644.00
333.31,5644.00
336.02,5665.00
338.73,5707.00
341.44,5665.00
344.15,5580.00
346.86,5612.00
349.56,5728.00
352.26,5655.00
354.96,5539.00
357.66,5517.00
360.35,5644.00
363.05,5623.00
365.74,5729.00
368.43,5792.00
371.12,5728.00
373.80,5771.00
376.48,5856.00
379.17,5792.00
381.85,5740.00
384.52,5760.00
387.20,5782.00
389.87,5708.00
392.54,5708.00
395.21,5760.00
397.88,5792.00
400.55,5718.00
403.21,5739.00
405.87,5760.00
408.53,5729.00
411.19,5623.00
413.84,5771.00
416.50,5782.00
419.15,5739.00
421.80,5634.00
424.45,5591.00
427.10,5760.00
429.74,5739.00
432.38,5644.00
435.02,5591.00
437.66,5623.00
440.30,5687.00
442.93,5655.00
445.56,5644.00
448.19,5729.00
450.82,5665.00
453.45,5654.00
456.07,5750.00
458.70,5665.00
461.32,5676.00
463.94,5676.00
466.55,5654.00
469.17,5729.00
471.78,5792.00
474.39,5739.00
477.00,5613.00
479.61,5581.00
482.22,5675.00
484.82,5708.00
487.42,5686.00
490.02,5602.00
492.62,5602.00
495.21,5602.00
497.81,5623.00
500.40,5527.00
502.99,5581.00
505.58,5591.00
508.17,5506.00
510.75,5560.00
513.33,5665.00
515.91,5580.00
518.49,5496.00
521.07,5485.00
523.65,5496.00
526.22,5560.00
528.79,5538.00
531.36,5464.00
533.93,5464.00
536.49,5454.00
539.06,5411.00
541.62,5517.00
544.18,5517.00
546.74,5495.00
549.30,5454.00
551.85,5369.00
554.40,5305.00
556.95,5305.00
559.50,5358.00
562.05,5326.00
564.59,5390.00
567.14,5348.00
569.68,5327.00
572.22,5347.00
574.76,5315.00
577.29,5305.00
579.83,5252.00
582.36,5273.00
584.89,5284.00
587.42,5231.00
589.95,5147.00
592.47,5072.00
594.99,5189.00
597.52,5252.00
600.04,5189.00
602.55,5115.00
605.07,5062.00
607.58,5114.00
610.09,5125.00
612.60,5072.00
615.11,4998.00
617.62,5062.00
620.12,5062.00
622.63,5041.00
625.13,5051.00
627.63,4998.00
630.13,4987.00
632.62,5030.00
635.12,5040.00
637.61,4955.00
640.10,4935.00
642.59,4871.00
645.07,4776.00
647.56,4871.00
650.04,4892.00
652.52,4977.00
655.00,4977.00
657.48,4935.00
659.96,4871.00
662.43,4765.00
664.90,4765.00
667.37,4881.00
669.84,4818.00
672.31,4818.00
674.78,4850.00
677.24,4829.00
679.70,4871.00
682.16,4839.00
684.62,4722.00
687.08,4755.00
689.53,4755.00
691.98,4776.00
694.43,4829.00
696.88,4775.00
699.33,4723.00
701.78,4659.00
704.22,4638.00
706.66,4680.00
709.10,4723.00
711.54,4659.00
713.98,4606.00
716.42,4712.00
718.85,4807.00
721.28,4807.00
723.71,4881.00
726.14,4956.00
728.57,5040.00
730.99,5051.00
733.41,4966.00
735.83,4839.00
738.25,4744.00
740.67,4701.00
743.09,4648.00
745.50,4575.00
747.91,4501.00
750.33,4426.00
752.73,4310.00
755.14,4352.00
757.55,4415.00
759.95,4310.00
762.35,4363.00
764.75,4480.00
767.15,4426.00
769.55,4268.00
771.95,4331.00
774.34,4352.00
776.73,4395.00
779.12,4310.00
781.51,4257.00
783.90,4193.00
786.28,4193.00
788.67,4267.00
791.05,4288.00
793.43,4246.00
795.80,4257.00
798.18,4278.00
800.56,4225.00
802.93,4204.00
805.30,4204.00
807.67,4225.00
810.04,4225.00
812.40,4140.00
814.77,4077.00
817.13,4108.00
819.49,4151.00
821.85,4087.00
824.21,4045.00
826.57,4003.00
828.92,3982.00
831.27,4024.00
833.63,4056.00
835.98,4035.00
838.32,4045.00
840.67,4024.00
843.01,3961.00
845.36,3876.00
847.70,3886.00
850.04,3950.00
852.37,3908.00
854.71,3833.00
857.05,3865.00
859.38,3897.00
861.71,3887.00
864.04,3834.00
866.37,3801.00
868.69,3738.00
871.02,3823.00
873.34,3844.00
875.66,3833.00
877.98,3802.00
880.30,3749.00
882.62,3738.00
884.93,3717.00
887.24,3717.00
889.55,3696.00
891.86,3621.00
894.17,3738.00
896.48,3695.00
898.78,3642.00
901.09,3663.00
903.39,3674.00
905.69,3632.00
907.99,3654.00
910.28,3632.00
912.58,3643.00
914.87,3622.00
917.16,3653.00
919.45,3675.00
921.74,3590.00
924.03,3632.00
926.31,3653.00
928.60,3664.00
930.88,3675.00
933.16,3600.00
935.44,3569.00
937.72,3568.00
939.99,3600.00
942.26,3568.00
944.54,3548.00
946.81,3505.00
949.08,3537.00
951.34,3589.00
953.61,3558.00
955.87,3590.00
958.14,3547.00
960.40,3537.00
962.66,3536.00
964.92,3474.00
967.17,3378.00
969.43,3346.00
971.68,3346.00
973.93,3346.00
976.18,3368.00
978.43,3357.00
980.68,3420.00
982.92,3431.00
985.17,3336.00
987.41,3378.00
989.65,3315.00
991.89,3177.00
994.12,3134.00
996.36,3219.00
998.59,3283.00
1000.83,3250.00
1003.06,3293.00
1005.29,3304.00
1007.51,3273.00
1009.74,3220.00
1011.97,3198.00
1014.19,3219.00
1016.41,3293.00
1018.63,3293.00
1020.85,3336.00
1023.07,3356.00
1025.28,3282.00
1027.49,3240.00
1029.71,3230.00
1031.92,3135.00
1034.13,3145.00
1036.33,3188.00
1038.54,3187.00
1040.74,3166.00
1042.95,3219.00
1045.15,3114.00
1047.35,3039.00
1049.55,3103.00
1051.74,3155.00
1053.94,3166.00
1056.13,3135.00
1058.32,3082.00
1060.51,3102.00
1062.70,3135.00
1064.89,3134.00
1067.08,3092.00
1069.26,3039.00
1071.44,3008.00
1073.63,3018.00
1075.81,3060.00
1077.98,3049.00
1080.16,3039.00
1082.34,3060.00
1084.51,2965.00
1086.68,2934.00
1088.85,2944.00
1091.02,2955.00
1093.19,2976.00
1095.35,3040.00
1097.52,2944.00
1099.68,2955.00
1101.84,2987.00
1104.00,2944.00
1106.16,2954.00
1108.32,2891.00
1110.48,2838.00
1112.63,2870.00
1114.78,2869.00
1116.93,2806.00
1119.08,2870.00
1121.23,2954.00
1123.38,2901.00
1125.52,2806.00
1127.67,2796.00
1129.81,2881.00
1131.95,2891.00
1134.09,2859.00
1136.22,2870.00
1138.36,2881.00
1140.50,2775.00
1142.63,2669.00
1144.76,2647.00
1146.89,2743.00
1149.02,2785.00
1151.15,2722.00
1153.27,2711.00
1155.40,2742.00
1157.52,2711.00
1159.64,2679.00
1161.76,2594.00
1163.88,2647.00
1165.99,2711.00
1168.11,2711.00
1170.22,2763.00
1172.34,2648.00
1174.45,2531.00
1176.56,2573.00
1178.66,2616.00
1180.77,2584.00
1182.88,2531.00
1184.98,2562.00
1187.08,2584.00
1189.18,2605.00
1191.28,2584.00
1193.38,2594.00
1195.47,2647.00
1197.57,2647.00
1199.66,2636.00
1201.75,2636.00
1203.85,2669.00
1205.93,2563.00
1208.02,2521.00
1210.11,2563.00
1212.19,2648.00
1214.28,2605.00
1216.36,2552.00
1218.44,2616.00
1220.52,2647.00
1222.59,2711.00
1224.67,2626.00
1226.74,2626.00
1228.82,2668.00
1230.89,2616.00
1232.96,2552.00
1235.03,2573.00
1237.10,2542.00
1239.16,2467.00
1241.23,2531.00
1243.29,2626.00
1245.35,2626.00
1247.41,2584.00
1249.47,2499.00
1251.53,2436.00
1253.58,2425.00
1255.64,2478.00
1257.69,2542.00
1259.74,2552.00
1261.79,2541.00
1263.84,2478.00
1265.89,2446.00
1267.93,2478.00
1269.98,2372.00
1272.02,2414.00
1274.06,2404.00
1276.10,2403.00
1278.14,2382.00
1280.18,2329.00
1282.22,2340.00
1284.25,2371.00
1286.28,2372.00
1288.32,2372.00
1290.35,2330.00
1292.38,2329.00
1294.40,2330.00
1296.43,2341.00
1298.46,2372.00
1300.48,2340.00
1302.50,2351.00
1304.52,2382.00
1306.54,2372.00
1308.56,2319.00
1310.58,2382.00
1312.59,2383.00
1314.60,2393.00
1316.62,2436.00
1318.63,2415.00
1320.64,2382.00
1322.65,2404.00
1324.65,2510.00
1326.66,2467.00
1328.66,2477.00
1330.66,2530.00
1332.67,2499.00
1334.67,2478.00
1336.66,2499.00
1338.66,2457.00
1340.66,2436.00
1342.65,2446.00
1344.65,2350.00
1346.64,2308.00
1348.63,2266.00
1350.62,2266.00
1352.60,2319.00
1354.59,2330.00
1356.57,2245.00
1358.56,2245.00
1360.54,2266.00
1362.52,2234.00
1364.50,2202.00
1366.48,2245.00
1368.46,2277.00
1370.43,2277.00
1372.41,2235.00
1374.38,2213.00
1376.35,2192.00
1378.32,2234.00
1380.29,2214.00
1382.25,2192.00
1384.22,2160.00
1386.18,2096.00
1388.15,2160.00
1390.11,2181.00
1392.07,2191.00
1394.03,2139.00
1395.99,2108.00
1397.94,2128.00
1399.90,2117.00
1401.85,2150.00
1403.80,2139.00
1405.76,2097.00
1407.71,2065.00
1409.65,2054.00
1411.60,2107.00
1413.55,2043.00
1415.49,1990.00
1417.44,1981.00
1419.38,2012.00
1421.32,2033.00
1423.26,1970.00
1425.19,2055.00
1427.13,2012.00
1429.07,1970.00
1431.00,2033.00
1432.93,2033.00
1434.86,1969.00
1436.79,1959.00
1438.72,1970.00
1440.65,1906.00
1442.57,1906.00
1444.50,1991.00
1446.42,1991.00
1448.34,1916.00
1450.26,1864.00
1452.18,1927.00
1454.10,1927.00
1456.02,1948.00
1457.93,1906.00
1459.85,1906.00
1461.76,1906.00
1463.67,1916.00
1465.58,1959.00
1467.49,1990.00
1469.40,1906.00
1471.31,1927.00
1473.21,1938.00
1475.11,1959.00
1477.02,1948.00
1478.92,1906.00
1480.82,1843.00
1482.72,1874.00
1484.61,1896.00
1486.51,1906.00
1488.40,1853.00
1490.30,1906.00
1492.19,1874.00
1494.08,1916.00
1495.97,1895.00
1497.86,1842.00
1499.74,1779.00
1501.63,1821.00
1503.51,1863.00
1505.40,1853.00
1507.28,1842.00
1509.16,1811.00
1511.04,1747.00
1512.92,1726.00
1514.79,1821.00
1516.67,1811.00
1518.54,1779.00
1520.42,1790.00
1522.29,1758.00
1524.16,1757.00
1526.03,1779.00
1527.89,1800.00
1529.76,1736.00
1531.63,1779.00
1533.49,1716.00
1535.35,1673.00
1537.21,1747.00
1539.07,1768.00
1540.93,1758.00
1542.79,1694.00
1544.65,1704.00
1546.50,1769.00
1548.36,1715.00
1550.21,1694.00
1552.06,1757.00
1553.91,1716.00
1555.76,1736.00
1557.61,1705.00
1559.45,1695.00
1561.30,1748.00
1563.14,1694.00
1564.98,1651.00
1566.82,1651.00
1568.67,1673.00
1570.50,1673.00
1572.34,1684.00
1574.18,1642.00
1576.01,1652.00
1577.85,1652.00
1579.68,1609.00
1581.51,1578.00
1583.34,1557.00
1585.17,1546.00
1587.00,1557.00
1588.82,1567.00
1590.65,1610.00
1592.47,1652.00
1594.30,1620.00
1596.12,1568.00
1597.94,1546.00
1599.76,1578.00
1601.57,1578.00
1603.39,1609.00
1605.21,1631.00
1607.02,1610.00
1608.83,1588.00
1610.64,1589.00
1612.45,1493.00
1614.26,1525.00
1616.07,1504.00
1617.88,1461.00
1619.68,1546.00
1621.49,1599.00
1623.29,1472.00
1625.09,1409.00
1626.89,1472.00
1628.69,1472.00
1630.49,1482.00
1632.29,1546.00
1634.08,1514.00
1635.88,1567.00
1637.67,1535.00
1639.46,1546.00
1641.25,1493.00
1643.04,1472.00
1644.83,1525.00
1646.62,1429.00
1648.41,1451.00
1650.19,1482.00
1651.97,1472.00
1653.76,1536.00
1655.54,1483.00
1657.32,1398.00
1659.10,1408.00
1660.88,1398.00
1662.65,1482.00
1664.43,1483.00
1666.20,1451.00
1667.97,1462.00
1669.75,1462.00
1671.52,1398.00
1673.29,1334.00
1675.05,1334.00
1676.82,1366.00
1678.59,1335.00
1680.35,1398.00
1682.11,1419.00
1683.88,1408.00
1685.64,1355.00
1687.40,1419.00
1689.16,1398.00
1690.91,1398.00
1692.67,1398.00
1694.42,1334.00
1696.18,1313.00
1697.93,1270.00
1699.68,1239.00
1701.43,1239.00
1703.18,1271.00
1704.93,1335.00
1706.68,1303.00
1708.42,1314.00
1710.17,1303.00
1711.91,1271.00
1713.65,1271.00
1715.39,1271.00
1717.13,1292.00
1718.87,1324.00
1720.61,1250.00
1722.35,1250.00
1724.08,1282.00
1725.81,1271.00
1727.55,1249.00
1729.28,1239.00
1731.01,1281.00
1732.74,1271.00
1734.47,1228.00
1736.19,1217.00
1737.92,1218.00
1739.64,1271.00
1741.37,1271.00
1743.09,1165.00
1744.81,1144.00
1746.53,1176.00
1748.25,1218.00
1749.97,1186.00
1751.68,1165.00
1753.40,1229.00
1755.11,1165.00
1756.83,1154.00
1758.54,1207.00
1760.25,1218.00
1761.96,1186.00
1763.67,1207.00
1765.38,1123.00
1767.08,1123.00
1768.79,1186.00
1770.49,1176.00
1772.19,1154.00
1773.90,1101.00
1775.60,1123.00
1777.30,1186.00
1778.99,1133.00
1780.69,1059.00
1782.39,1133.00
1784.08,1133.00
1785.78,1133.00
1787.47,1112.00
1789.16,1112.00
1790.85,1059.00
1792.54,1049.00
1794.23,1143.00
1795.91,1133.00
1797.60,1080.00
1799.28,1112.00
1800.97,1165.00
1802.65,1122.00
1804.33,1143.00
1806.01,1123.00
1807.69,1048.00
1809.37,1090.00
1811.05,1081.00
1812.72,1080.00
1814.40,1080.00
1816.07,1090.00
1817.74,1112.00
1819.41,1102.00
1821.08,1122.00
1822.75,1112.00
1824.42,1143.00
1826.09,1049.00
1827.75,1038.00
1829.42,1027.00
1831.08,1059.00
1832.74,1090.00
1834.40,1038.00
1836.06,1006.00
1837.72,1080.00
1839.38,1059.00
1841.04,1049.00
1842.69,1101.00
1844.35,1080.00
1846.00,1058.00
1847.65,1037.00
1849.30,1037.00
1850.95,1059.00
1852.60,1006.00
1854.25,1017.00
1855.90,1049.00
1857.54,995.00
1859.19,995.00
1860.83,1027.00
1862.47,1017.00
1864.12,1006.00
1865.76,995.00
1867.40,985.00
1869.03,1027.00
1870.67,1038.00
1872.31,1028.00
1873.94,1017.00
1875.57,995.00
1877.21,974.00
1878.84,900.00
1880.47,910.00
1882.10,932.00
1883.73,911.00
1885.35,943.00
1886.98,932.00
1888.61,974.00
1890.23,1006.00
1891.85,985.00
1893.47,911.00
1895.09,943.00
1896.71,964.00
1898.33,911.00
1899.95,910.00
1901.57,890.00
1903.18,964.00
1904.80,964.00
1906.41,943.00
1908.02,932.00
1909.63,900.00
1911.24,910.00
1912.85,869.00
1914.46,868.00
1916.07,911.00
1917.67,890.00
1919.28,890.00
1920.88,911.00
1922.48,868.00
1924.08,889.00
1925.68,889.00
1927.28,869.00
1928.88,869.00
1930.48,879.00
1932.07,868.00
1933.67,932.00
1935.26,868.00
1936.86,848.00
1938.45,858.00
1940.04,869.00
1941.63,890.00
1943.22,879.00
1944.80,879.00
1946.39,847.00
1947.98,762.00
1949.56,762.00
1951.14,837.00
1952.73,869.00
1954.31,869.00
1955.89,826.00
1957.47,826.00
1959.05,837.00
1960.62,869.00
1962.20,869.00
1963.77,868.00
1965.35,847.00
1966.92,847.00
1968.49,783.00
1970.06,773.00
1971.63,805.00
1973.20,794.00
1974.77,816.00
1976.34,879.00
1977.90,847.00
1979.47,805.00
1981.03,816.00
1982.59,794.00
1984.15,857.00
1985.71,868.00
1987.27,826.00
1988.83,794.00
1990.39,826.00
1991.94,794.00
1993.50,763.00
1995.05,763.00
1996.61,762.00
1998.16,784.00
1999.71,699.00
2001.26,773.00
2002.81,804.00
2004.36,805.00
2005.91,773.00
2007.45,762.00
2009.00,783.00
2010.54,795.00
2012.08,763.00
2013.62,783.00
2015.17,805.00
2016.71,847.00
2018.24,795.00
2019.78,762.00
2021.32,720.00
2022.85,720.00
2024.39,751.00
2025.92,763.00
2027.46,762.00
2028.99,731.00
2030.52,742.00
2032.05,773.00
2033.58,751.00
2035.10,741.00
2036.63,784.00
2038.16,815.00
2039.68,795.00
2041.21,784.00
2042.73,762.00
2044.25,742.00
2045.77,752.00
2047.29,752.00
2048.81,699.00
2050.33,720.00
2051.84,784.00
2053.36,763.00
2054.87,720.00
2056.39,752.00
2057.90,730.00
2059.41,699.00
2060.92,720.00
2062.43,731.00
2063.94,752.00
2065.45,752.00
2066.95,720.00
2068.46,677.00
2069.96,741.00
2071.47,720.00
2072.97,699.00
2074.47,689.00
2075.97,677.00
2077.47,677.00
2078.97,667.00
2080.47,635.00
2081.96,699.00
2083.46,730.00
2084.95,668.00
2086.45,657.00
2087.94,657.00
2089.43,699.00
2090.92,678.00
2092.41,699.00
2093.90,657.00
2095.39,635.00
2096.88,646.00
2098.36,656.00
2099.85,656.00
2101.33,678.00
2102.81,614.00
2104.30,615.00
2105.78,656.00
2107.26,614.00
2108.74,615.00
2110.21,635.00
2111.69,582.00
2113.17,572.00
2114.64,635.00
2116.12,625.00
2117.59,656.00
2119.06,656.00
2120.53,667.00
2122.00,667.00
2123.47,625.00
2124.94,604.00
2126.41,614.00
2127.87,635.00
2129.34,636.00
2130.80,571.00
2132.27,593.00
2133.73,572.00
2135.19,509.00
2136.65,540.00
2138.11,615.00
2139.57,646.00
2141.03,635.00
2142.48,625.00
2143.94,572.00
2145.39,593.00
2146.85,593.00
2148.30,593.00
2149.75,593.00
2151.20,583.00
2152.65,562.00
2154.10,551.00
2155.55,530.00
2157.00,530.00
2158.44,561.00
2159.89,572.00
2161.33,561.00
2162.78,550.00
2164.22,614.00
2165.66,572.00
2167.10,541.00
2168.54,529.00
2169.98,529.00
2171.42,583.00
2172.85,571.00
2174.29,530.00
2175.72,530.00
2177.16,519.00
2178.59,572.00
2180.02,571.00
2181.45,646.00
2182.88,646.00
2184.31,614.00
2185.74,614.00
2187.17,571.00
2188.59,562.00
2190.02,508.00
2191.44,529.00
2192.87,519.00
2194.29,550.00
2195.71,593.00
2197.13,562.00
2198.55,519.00
2199.97,519.00
2201.39,529.00
2202.81,519.00
2204.22,550.00
2205.64,561.00
2207.05,508.00
2208.46,540.00
2209.88,561.00
2211.29,529.00
2212.70,509.00
2214.11,540.00
2215.52,509.00
2216.92,487.00
2218.33,509.00
2219.74,508.00
2221.14,498.00
2222.54,519.00
2223.95,530.00
2225.35,487.00
2226.75,477.00
2228.15,466.00
2229.55,477.00
2230.95,487.00
2232.35,561.00
2233.74,593.00
2235.14,530.00
2236.53,487.00
2237.93,508.00
2239.32,508.00
2240.71,508.00
2242.10,476.00
2243.49,466.00
2244.88,424.00
2246.27,519.00
2247.66,508.00
2249.04,519.00
2250.43,508.00
2251.81,498.00
2253.20,487.00
2254.58,487.00
2255.96,445.00
2257.34,445.00
2258.72,455.00
2260.10,466.00
2261.48,445.00
2262.86,455.00
2264.23,445.00
2265.61,434.00
2266.98,455.00
2268.36,456.00
2269.73,455.00
2271.10,476.00
2272.47,445.00
2273.84,434.00
2275.21,381.00
2276.58,392.00
2277.95,423.00
2279.31,445.00
2280.68,424.00
2282.05,402.00
2283.41,402.00
2284.77,392.00
2286.13,424.00
2287.50,434.00
2288.86,424.00
2290.22,413.00
2291.57,466.00
2292.93,456.00
2294.29,423.00
2295.64,392.00
2297.00,391.00
2298.35,403.00
2299.71,424.00
2301.06,413.00
2302.41,424.00
2303.76,434.00
2305.11,434.00
2306.46,423.00
2307.81,371.00
2309.15,423.00
2310.50,434.00
2311.84,423.00
2313.19,371.00
2314.53,360.00
2315.87,370.00
2317.22,381.00
2318.56,423.00
2319.90,466.00
2321.24,445.00
2322.57,456.00
2323.91,424.00
2325.25,423.00
2326.58,402.00
2327.92,402.00
2329.25,370.00
2330.58,371.00
2331.91,371.00
2333.25,434.00
2334.58,434.00
2335.90,413.00
2337.23,392.00
2338.56,392.00
2339.89,403.00
2341.21,423.00
2342.54,339.00
2343.86,339.00
2345.19,360.00
2346.51,360.00
2347.83,339.00
2349.15,370.00
2350.47,381.00
2351.79,371.00
2353.11,381.00
2354.42,392.00
2355.74,360.00
2357.06,349.00
2358.37,423.00
2359.68,402.00
2361.00,339.00
2362.31,317.00
2363.62,370.00
2364.93,391.00
2366.24,349.00
2367.55,371.00
2368.86,360.00
2370.16,360.00
2371.47,413.00
2372.77,370.00
2374.08,349.00
2375.38,413.00
2376.68,392.00
2377.98,381.00
2379.29,360.00
2380.59,360.00
2381.88,381.00
2383.18,382.00
2384.48,329.00
2385.78,339.00
2387.07,360.00
2388.37,360.00
2389.66,338.00
2390.95,339.00
2392.25,329.00
2393.54,339.00
2394.83,339.00
2396.12,349.00
2397.41,370.00
2398.70,370.00
2399.98,328.00
2401.27,297.00
2402.55,328.00
2403.84,339.00
2405.12,307.00
2406.41,297.00
2407.69,307.00
2408.97,285.00
2410.25,329.00
2411.53,360.00
2412.81,328.00
2414.09,307.00
2415.36,339.00
2416.64,339.00
2417.91,329.00
2419.19,328.00
2420.46,328.00
2421.74,339.00
2423.01,317.00
2424.28,296.00
2425.55,329.00
2426.82,339.00
2428.09,350.00
2429.36,360.00
2430.62,349.00
2431.89,296.00
2433.15,339.00
2434.42,371.00
2435.68,349.00
2436.94,275.00
2438.21,254.00
2439.47,275.00
2440.73,318.00
2441.99,328.00
2443.25,307.00
2444.51,265.00
2445.76,318.00
2447.02,339.00
2448.27,329.00
2449.53,328.00
2450.78,371.00
2452.03,403.00
2453.29,296.00
2454.54,276.00
2455.79,307.00
2457.04,276.00
2458.29,307.00
2459.54,286.00
2460.78,276.00
2462.03,255.00
2463.27,296.00
2464.52,339.00
2465.76,338.00
2467.01,296.00
2468.25,296.00
2469.49,328.00
2470.73,317.00
2471.97,286.00
2473.21,276.00
2474.45,275.00
2475.69,254.00
2476.92,254.00
2478.16,254.00
2479.39,254.00
2480.63,255.00
2481.86,233.00
2483.09,233.00
2484.32,265.00
2485.56,254.00
2486.79,254.00
2488.02,233.00
2489.24,191.00
2490.47,255.00
2491.70,255.00
2492.92,222.00
2494.15,233.00
2495.37,233.00
2496.60,212.00
2497.82,254.00
2499.04,254.00
2500.26,275.00
2501.48,297.00
2502.70,276.00
2503.92,254.00
2505.14,307.00
2506.36,276.00
2507.58,276.00
2508.79,286.00
2510.01,360.00
2511.22,328.00
2512.43,254.00
2513.64,212.00
2514.86,243.00
2516.07,275.00
2517.28,244.00
2518.49,212.00
2519.70,254.00
2520.90,223.00
2522.11,254.00
2523.32,296.00
2524.52,254.00
2525.73,264.00
2526.93,275.00
2528.13,244.00
2529.33,244.00
2530.54,244.00
2531.74,233.00
2532.94,244.00
2534.14,233.00
2535.33,233.00
2536.53,254.00
2537.73,223.00
2538.92,265.00
2540.12,265.00
2541.31,233.00
2542.51,212.00
2543.70,169.00
2544.89,211.00
2546.08,243.00
2547.27,212.00
2548.46,255.00
2549.65,254.00
2550.84,233.00
2552.03,212.00
2553.21,243.00
2554.40,190.00
2555.58,191.00
2556.77,222.00
2557.95,201.00
2559.13,201.00
2560.31,211.00
2561.50,191.00
2562.68,190.00
2563.85,223.00
2565.03,212.00
2566.21,222.00
2567.39,201.00
2568.56,180.00
2569.74,191.00
2570.91,201.00
2572.09,233.00
2573.26,159.00
2574.43,191.00
2575.61,223.00
2576.78,212.00
2577.95,254.00
2579.12,233.00
2580.29,233.00
2581.45,212.00
2582.62,202.00
2583.79,244.00
2584.95,255.00
2586.12,212.00
2587.28,180.00
2588.44,201.00
2589.61,223.00
2590.77,233.00
2591.93,244.00
2593.09,254.00
2594.25,244.00
2595.41,233.00
2596.56,232.00
2597.72,233.00
2598.88,190.00
2600.03,222.00
2601.19,212.00
2602.34,222.00
2603.50,254.00
2604.65,233.00
2605.80,170.00
2606.95,191.00
2608.10,191.00
2609.25,190.00
2610.40,191.00
2611.55,170.00
2612.70,180.00
2613.84,191.00
2614.99,158.00
2616.13,159.00
2617.28,148.00
2618.42,190.00
2619.56,223.00
2620.71,233.00
2621.85,254.00
2622.99,244.00
2624.13,212.00
2625.27,211.00
2626.40,191.00
2627.54,222.00
2628.68,190.00
2629.81,127.00
2630.95,169.00
2632.08,201.00
2633.22,191.00
2634.35,170.00
2635.48,170.00
2636.61,169.00
2637.74,169.00
2638.87,159.00
2640.00,191.00
2641.13,233.00
2642.26,201.00
2643.39,148.00
2644.51,116.00
2645.64,63.00
2646.76,116.00
2647.89,190.00
2649.01,170.00
2650.13,128.00
2651.25,169.00
2652.38,159.00
2653.50,170.00
2654.62,170.00
2655.73,170.00
2656.85,191.00
2657.97,148.00
2659.09,190.00
2660.20,169.00
2661.32,190.00
2662.43,170.00
2663.55,127.00
2664.66,127.00
2665.77,138.00
2666.88,159.00
2667.99,148.00
2669.10,137.00
2670.21,149.00
2671.32,169.00
2672.43,170.00
2673.54,170.00
2674.64,170.00
2675.75,127.00
2676.85,148.00
2677.96,159.00
2679.06,170.00
2680.16,128.00
2681.26,138.00
2682.37,149.00
2683.47,169.00
2684.57,202.00
2685.66,159.00
2686.76,169.00
2687.86,191.00
2688.96,180.00
2690.05,170.00
2691.15,169.00
2692.24,116.00
2693.34,170.00
2694.43,191.00
2695.52,159.00
2696.62,137.00
2697.71,137.00
2698.80,170.00
2699.89,170.00
2700.98,137.00
2702.06,106.00
2703.15,148.00
2704.24,158.00
2705.32,170.00
2706.41,159.00
2707.49,148.00
2708.58,169.00
2709.66,148.00
2710.74,137.00
2711.83,149.00
2712.91,169.00
2713.99,138.00
2715.07,116.00
2716.15,127.00
2717.22,117.00
2718.30,127.00
2719.38,170.00
2720.45,170.00
2721.53,169.00
2722.60,180.00
2723.68,149.00
2724.75,127.00
2725.82,106.00
2726.89,105.00
2727.97,85.00
2729.04,96.00
2730.11,170.00
2731.17,169.00
2732.24,169.00
2733.31,170.00
2734.38,148.00
2735.44,169.00
2736.51,116.00
2737.57,128.00
2738.64,137.00
2739.70,148.00
2740.76,138.00
2741.82,148.00
2742.89,84.00
2743.95,84.00
2745.01,127.00
2746.07,127.00
2747.12,128.00
2748.18,127.00
2749.24,127.00
2750.29,159.00
2751.35,201.00
2752.40,191.00
2753.46,116.00
2754.51,127.00
2755.57,127.00
2756.62,149.00
2757.67,106.00
2758.72,95.00
2759.77,106.00
2760.82,105.00
2761.87,96.00
2762.91,105.00
2763.96,137.00
2765.01,170.00
2766.05,148.00
2767.10,106.00
2768.14,117.00
2769.19,127.00
2770.23,85.00
2771.27,127.00
2772.31,106.00
2773.35,137.00
2774.40,116.00
2775.43,95.00
2776.47,85.00
2777.51,96.00
2778.55,106.00
2779.59,137.00
2780.62,116.00
2781.66,148.00
2782.69,137.00
2783.73,211.00
2784.76,116.00
2785.79,127.00
2786.82,158.00
2787.85,137.00
2788.89,127.00
2789.92,148.00
2790.94,148.00
2791.97,180.00
2793.00,170.00
2794.03,149.00
2795.05,138.00
2796.08,116.00
2797.11,127.00
2798.13,170.00
2799.15,148.00
2800.18,106.00
2801.20,95.00
2802.22,85.00
2803.24,106.00
2804.26,85.00
2805.28,127.00
2806.30,85.00
2807.32,106.00
2808.34,127.00
2809.35,127.00
2810.37,128.00
2811.39,127.00
2812.40,85.00
2813.41,117.00
2814.43,137.00
2815.44,117.00
2816.45,85.00
2817.46,95.00
2818.48,116.00
2819.49,159.00
2820.49,117.00
2821.50,127.00
2822.51,127.00
2823.52,137.00
2824.53,85.00
2825.53,85.00
2826.54,74.00
2827.54,106.00
2828.55,128.00
2829.55,148.00
2830.55,95.00
2831.55,116.00
2832.56,148.00
2833.56,106.00
2834.56,84.00
2835.56,42.00
2836.56,53.00
2837.55,64.00
2838.55,116.00
2839.55,127.00
2840.54,84.00
2841.54,74.00
2842.53,95.00
2843.53,74.00
2844.52,85.00
2845.51,95.00
2846.51,117.00
2847.50,106.00
2848.49,85.00
2849.48,85.00
2850.47,84.00
2851.46,106.00
2852.45,128.00
2853.43,64.00
2854.42,106.00
2855.41,117.00
2856.39,106.00
2857.38,85.00
2858.36,64.00
2859.34,64.00
2860.33,106.00
2861.31,127.00
2862.29,106.00
2863.27,127.00
2864.25,127.00
2865.23,63.00
2866.21,64.00
2867.19,64.00
2868.17,127.00
2869.14,106.00
2870.12,85.00
2871.09,84.00
2872.07,84.00
2873.04,95.00
2874.02,117.00
2874.99,116.00
2875.96,95.00
2876.93,85.00
2877.91,95.00
2878.88,137.00
2879.85,106.00
2880.82,74.00
2881.78,96.00
2882.75,106.00
2883.72,63.00
2884.69,64.00
2885.65,64.00
2886.62,42.00
2887.58,84.00
2888.55,85.00
2889.51,63.00
2890.47,64.00
2891.43,85.00
2892.39,106.00
2893.36,75.00
2894.31,63.00
2895.27,85.00
2896.23,85.00
2897.19,84.00
2898.15,74.00
2899.11,85.00
2900.06,96.00
2901.02,63.00
2901.97,105.00
2902.93,106.00
2903.88,95.00
2904.83,106.00
2905.79,117.00
2906.74,74.00
2907.69,43.00
2908.64,85.00
2909.59,53.00
2910.54,64.00
2911.49,84.00
2912.43,127.00
2913.38,106.00
2914.33,116.00
2915.27,106.00
2916.22,85.00
2917.16,74.00
2918.11,43.00
2919.05,85.00
2919.99,63.00
2920.94,53.00
2921.88,105.00
2922.82,116.00
2923.76,85.00
2924.70,84.00
2925.64,127.00
2926.58,127.00
2927.51,117.00
2928.45,74.00
2929.39,106.00
2930.32,95.00
2931.26,64.00
2932.19,64.00
2933.13,42.00
2934.06,64.00
2934.99,95.00
2935.92,127.00
2936.86,116.00
2937.79,85.00
2938.72,95.00
2939.65,117.00
2940.57,75.00
2941.50,95.00
2942.43,95.00
2943.36,52.00
2944.28,64.00
2945.21,84.00
2946.13,42.00
2947.06,84.00
2947.98,84.00
2948.91,106.00
2949.83,64.00
2950.75,10.00
2951.67,10.00
2952.59,63.00
2953.51,85.00
2954.43,21.00
2955.35,53.00
2956.27,85.00
2957.19,106.00
2958.10,42.00
2959.02,74.00
2959.94,85.00
2960.85,85.00
2961.77,127.00
2962.68,106.00
2963.59,85.00
2964.51,85.00
2965.42,43.00
2966.33,75.00
2967.24,85.00
2968.15,95.00
2969.06,22.00
2969.97,21.00
2970.88,43.00
2971.78,42.00
2972.69,63.00
2973.60,105.00
2974.50,106.00
2975.41,84.00
2976.31,74.00
2977.22,106.00
2978.12,116.00
2979.02,63.00
2979.93,42.00
2980.83,63.00
2981.73,53.00
2982.63,105.00
2983.53,84.00
2984.43,63.00
2985.33,85.00
2986.22,106.00
2987.12,85.00
2988.02,63.00
2988.91,64.00
2989.81,127.00
2990.70,148.00
2991.60,138.00
2992.49,74.00
2993.38,21.00
2994.28,10.00
2995.17,95.00
2996.06,117.00
2996.95,53.00
2997.84,42.00
2998.73,74.00
2999.62,63.00
3000.51,85.00
3001.40,74.00
3002.28,74.00
3003.17,42.00
3004.05,32.00
3004.94,84.00
3005.82,63.00
3006.71,10.00
3007.59,-96.00
3008.47,-53.00
3009.36,0.00
3010.24,43.00
3011.12,43.00
3012.00,10.00
3012.88,-42.00
3013.76,0.00
3014.64,43.00
3015.51,43.00
3016.39,63.00
3017.27,95.00
3018.14,85.00
3019.02,63.00
3019.89,21.00
3020.77,43.00
3021.64,21.00
3022.52,31.00
3023.39,85.00
3024.26,84.00
3025.13,32.00
3026.00,21.00
3026.87,53.00
3027.74,43.00
3028.61,11.00
3029.48,0.00
3030.35,63.00
3031.21,64.00
3032.08,105.00
3032.95,74.00
3033.81,10.00
3034.68,21.00
3035.54,43.00
3036.40,43.00
3037.27,32.00
3038.13,42.00
3038.99,42.00
3039.85,64.00
3040.71,85.00
3041.57,85.00
3042.43,53.00
3043.29,42.00
3044.15,74.00
3045.01,32.00
3045.86,64.00
3046.72,63.00
3047.58,11.00
3048.43,10.00
3049.29,64.00
3050.14,74.00
3050.99,42.00
3051.85,63.00
3052.70,53.00
3053.55,-21.00
3054.40,-42.00
3055.25,10.00
3056.10,42.00
3056.95,64.00
3057.80,64.00
3058.65,11.00
3059.50,21.00
3060.34,106.00
3061.19,149.00
3062.04,106.00
3062.88,42.00
3063.73,53.00
3064.57,43.00
3065.42,32.00
3066.26,42.00
3067.10,63.00
3067.94,21.00
3068.78,43.00
3069.63,0.00
3070.47,10.00
3071.31,0.00
3072.14,21.00
3072.98,21.00
3073.82,43.00
3074.66,95.00
3075.49,84.00
3076.33,53.00
3077.17,85.00
3078.00,64.00
3078.83,22.00
3079.67,21.00
3080.50,11.00
3081.33,0.00
3082.17,0.00
3083.00,21.00
3083.83,-42.00
3084.66,-53.00
3085.49,0.00
3086.32,0.00
3087.15,21.00
3087.97,74.00
3088.80,74.00
3089.63,0.00
3090.46,53.00
3091.28,63.00
3092.11,63.00
3092.93,96.00
3093.75,74.00
3094.58,21.00
3095.40,43.00
3096.22,-10.00
3097.05,21.00
3097.87,74.00
3098.69,85.00
3099.51,42.00
3100.33,21.00
3101.15,53.00
3101.96,43.00
3102.78,43.00
3103.60,42.00
3104.42,21.00
3105.23,10.00
3106.05,53.00
3106.86,22.00
3107.68,0.00
3108.49,53.00
3109.30,32.00
3110.12,53.00
3110.93,84.00
3111.74,42.00
3112.55,0.00
3113.36,-21.00
3114.17,-32.00
3114.98,42.00
3115.79,32.00
3116.60,0.00
3117.40,43.00
3118.21,11.00
3119.02,21.00
3119.82,0.00
3120.63,-10.00
3121.43,32.00
3122.24,85.00
3123.04,85.00
3123.84,32.00
3124.65,32.00
3125.45,42.00
3126.25,63.00
3127.05,-10.00
3127.85,-10.00
3128.65,21.00
3129.45,0.00
3130.25,-53.00
3131.05,21.00
3131.84,74.00
3132.64,31.00
3133.44,-11.00
3134.23,-10.00
3135.03,21.00
3135.82,-21.00
3136.62,-22.00
3137.41,10.00
3138.20,42.00
3139.00,63.00
3139.79,10.00
3140.58,-31.00
3141.37,0.00
3142.16,42.00
3142.95,11.00
3143.74,21.00
3144.53,42.00
3145.32,53.00
3146.10,0.00
3146.89,0.00
3147.68,-10.00
3148.46,32.00
3149.25,53.00
3150.03,74.00
3150.82,43.00
3151.60,53.00
3152.38,21.00
3153.17,42.00
3153.95,74.00
3154.73,43.00
3155.51,0.00
3156.29,32.00
3157.07,22.00
3157.85,21.00
3158.63,21.00
3159.41,52.00
3160.18,63.00
3160.96,32.00
3161.74,32.00
3162.51,10.00
3163.29,11.00
3164.06,43.00
3164.84,42.00
3165.61,64.00
3166.38,10.00
3167.16,11.00
3167.93,0.00
3168.70,21.00
3169.47,11.00
3170.24,0.00
3171.01,0.00
3171.78,-11.00
3172.55,-11.00
3173.32,0.00
3174.09,0.00
3174.85,21.00
3175.62,53.00
3176.39,64.00
3177.15,42.00
3177.92,43.00
3178.68,21.00
3179.45,-10.00
3180.21,-42.00
3180.97,-22.00
3181.73,-21.00
3182.50,0.00
3183.26,21.00
3184.02,0.00
3184.78,84.00
3185.54,74.00
3186.30,84.00
3187.05,22.00
3187.81,21.00
3188.57,63.00
3189.33,74.00
3190.08,42.00
3190.84,42.00
3191.59,22.00
3192.35,0.00
3193.10,42.00
3193.86,32.00
3194.61,11.00
3195.36,0.00
3196.12,21.00
3196.87,21.00
3197.62,42.00
3198.37,84.00
3199.12,0.00
3199.87,-21.00
3200.62,-42.00
3201.36,53.00
3202.11,42.00
3202.86,32.00
3203.61,0.00
3204.35,11.00
3205.10,32.00
3205.84,63.00
3206.59,32.00
3207.33,0.00
3208.08,21.00
3208.82,53.00
3209.56,53.00
3210.30,21.00
3211.05,22.00
3211.79,-21.00
3212.53,0.00
3213.27,42.00
3214.01,63.00
3214.75,32.00
3215.48,-21.00
3216.22,0.00
3216.96,42.00
3217.69,31.00
3218.43,63.00
3219.17,32.00
3219.90,21.00
3220.64,21.00
3221.37,43.00
3222.10,11.00
3222.84,0.00
3223.57,43.00
3224.30,-21.00
3225.03,0.00
3225.76,10.00
3226.49,32.00
3227.22,42.00
3227.95,64.00
3228.68,85.00
3229.41,64.00
3230.14,42.00
3230.87,32.00
3231.59,21.00
3232.32,-31.00
3233.04,21.00
3233.77,53.00
3234.49,43.00
3235.22,11.00
3235.94,-11.00
3236.66,11.00
3237.39,-10.00
3238.11,-21.00
3238.83,10.00
3239.55,11.00
3240.27,0.00
3240.99,0.00
3241.71,63.00
3242.43,43.00
3243.15,10.00
3243.87,-11.00
3244.58,53.00
3245.30,-11.00
3246.02,0.00
3246.73,10.00
3247.45,0.00
3248.16,11.00
3248.88,31.00
3249.59,43.00
3250.30,21.00
3251.01,0.00
3251.73,21.00
3252.44,0.00
3253.15,10.00
3253.86,-42.00
3254.57,-43.00
3255.28,32.00
3255.99,0.00
3256.70,-22.00
3257.41,-21.00
3258.11,21.00
3258.82,0.00
3259.53,-11.00
3260.23,-10.00
3260.94,21.00
3261.64,22.00
3262.35,32.00
3263.05,32.00
3263.76,0.00
3264.46,-32.00
3265.16,-32.00
3265.86,-32.00
3266.56,-63.00
3267.26,-21.00
3267.97,0.00
3268.67,21.00
3269.36,10.00
3270.06,0.00
3270.76,21.00
3271.46,21.00
3272.16,-21.00
3272.85,0.00
