RamanShift,Intensity
180.91,307.00
183.74,381.00
186.56,413.00
189.39,519.00
192.21,688.00
195.03,974.00
197.84,1292.00
200.66,1779.00
203.47,2330.00
206.28,2679.00
209.09,3061.00
211.89,3558.00
214.70,3865.00
217.50,4183.00
220.30,4406.00
223.10,4532.00
225.89,4680.00
228.69,4713.00
231.48,4712.00
234.27,4786.00
237.05,4882.00
239.84,4818.00
242.62,4818.00
245.40,4744.00
248.18,4649.00
250.96,4628.00
253.73,4532.00
256.51,4426.00
259.28,4257.00
262.05,4183.00
264.81,4076.00
267.58,4056.00
270.34,3992.00
273.10,3908.00
275.86,3887.00
278.61,3844.00
281.37,3727.00
284.12,3749.00
286.87,3717.00
289.62,3791.00
292.36,3749.00
295.11,3780.00
297.85,3791.00
300.59,3833.00
303.33,3801.00
306.06,3759.00
308.80,3823.00
311.53,3865.00
314.26,3822.00
316.99,3770.00
319.71,3728.00
322.44,3834.00
325.16,3802.00
327.88,3611.00
330.59,3590.00
333.31,3696.00
336.02,3727.00
338.73,3632.00
341.44,3653.00
344.15,3589.00
346.86,3621.00
349.56,3760.00
352.26,3759.00
354.96,3738.00
357.66,3696.00
360.35,3664.00
363.05,3706.00
365.74,3781.00
368.43,3759.00
371.12,3737.00
373.80,3717.00
376.48,3716.00
379.17,3675.00
381.85,3759.00
384.52,3844.00
387.20,3855.00
389.87,3802.00
392.54,3791.00
395.21,3802.00
397.88,3887.00
400.55,3812.00
403.21,3780.00
405.87,3823.00
408.53,3728.00
411.19,3675.00
413.84,3749.00
416.50,3801.00
419.15,3738.00
421.80,3696.00
424.45,3675.00
427.10,3674.00
429.74,3822.00
432.38,3844.00
435.02,3738.00
437.66,3780.00
440.30,3770.00
442.93,3791.00
445.56,3738.00
448.19,3780.00
450.82,3812.00
453.45,3781.00
456.07,3886.00
458.70,3844.00
461.32,3770.00
463.94,3748.00
466.55,3654.00
469.17,3696.00
471.78,3780.00
474.39,3738.00
477.00,3717.00
479.61,3801.00
482.22,3833.00
484.82,3727.00
487.42,3759.00
490.02,3749.00
492.62,3717.00
495.21,3759.00
497.81,3769.00
500.40,3695.00
502.99,3664.00
505.58,3717.00
508.17,3642.00
510.75,3642.00
513.33,3728.00
515.91,3716.00
518.49,3674.00
521.07,3685.00
523.65,3696.00
526.22,3580.00
528.79,3548.00
531.36,3600.00
533.93,3653.00
536.49,3706.00
539.06,3727.00
541.62,3770.00
544.18,3664.00
546.74,3632.00
549.30,3674.00
551.85,3589.00
554.40,3547.00
556.95,3610.00
559.50,3537.00
562.05,3548.00
564.59,3558.00
567.14,3547.00
569.68,3601.00
572.22,3632.00
574.76,3569.00
577.29,3579.00
579.83,3590.00
582.36,3548.00
584.89,3632.00
587.42,3664.00
589.95,3600.00
592.47,3590.00
594.99,3463.00
597.52,3378.00
600.04,3367.00
602.55,3336.00
605.07,3335.00
607.58,3378.00
610.09,3516.00
612.60,3568.00
615.11,3410.00
617.62,3240.00
620.12,3272.00
622.63,3409.00
625.13,3357.00
627.63,3346.00
630.13,3336.00
632.62,3314.00
635.12,3293.00
637.61,3335.00
640.10,3399.00
642.59,3325.00
645.07,3272.00
647.56,3230.00
650.04,3209.00
652.52,3187.00
655.00,3124.00
657.48,3092.00
659.96,3229.00
662.43,3251.00
664.90,3250.00
667.37,3240.00
669.84,3198.00
672.31,3219.00
674.78,3145.00
677.24,3124.00
679.70,3188.00
682.16,3071.00
684.62,3050.00
687.08,3166.00
689.53,3250.00
691.98,3177.00
694.43,3124.00
696.88,3176.00
699.33,3155.00
701.78,3060.00
704.22,3039.00
706.66,3029.00
709.10,2986.00
711.54,3060.00
713.98,3060.00
716.42,3102.00
718.85,3124.00
721.28,3209.00
723.71,3251.00
726.14,3209.00
728.57,3251.00
730.99,3346.00
733.41,3335.00
735.83,3293.00
738.25,3219.00
740.67,3198.00
743.09,3092.00
745.50,2986.00
747.91,2933.00
750.33,2912.00
752.73,2954.00
755.14,2933.00
757.55,2912.00
759.95,2827.00
762.35,2870.00
764.75,3028.00
767.15,2891.00
769.55,2849.00
771.95,2902.00
774.34,2922.00
776.73,2933.00
779.12,2880.00
781.51,2732.00
783.90,2742.00
786.28,2764.00
788.67,2785.00
791.05,2817.00
793.43,2754.00
795.80,2764.00
798.18,2742.00
800.56,2721.00
802.93,2817.00
805.30,2838.00
807.67,2732.00
810.04,2668.00
812.40,2689.00
814.77,2700.00
817.13,2668.00
819.49,2679.00
821.85,2689.00
824.21,2636.00
826.57,2657.00
828.92,2658.00
831.27,2668.00
833.63,2605.00
835.98,2594.00
838.32,2584.00
840.67,2573.00
843.01,2627.00
845.36,2636.00
847.70,2595.00
850.04,2584.00
852.37,2510.00
854.71,2531.00
857.05,2615.00
859.38,2531.00
861.71,2510.00
864.04,2531.00
866.37,2478.00
868.69,2531.00
871.02,2605.00
873.34,2446.00
875.66,2425.00
877.98,2552.00
880.30,2530.00
882.62,2509.00
884.93,2531.00
887.24,2552.00
889.55,2489.00
891.86,2457.00
894.17,2404.00
896.48,2446.00
898.78,2425.00
901.09,2468.00
903.39,2489.00
905.69,2393.00
907.99,2404.00
910.28,2467.00
912.58,2478.00
914.87,2520.00
917.16,2509.00
919.45,2425.00
921.74,2436.00
924.03,2394.00
926.31,2361.00
928.60,2382.00
930.88,2361.00
933.16,2329.00
935.44,2361.00
937.72,2308.00
939.99,2308.00
942.26,2415.00
944.54,2457.00
946.81,2510.00
949.08,2403.00
951.34,2319.00
953.61,2372.00
955.87,2362.00
958.14,2298.00
960.40,2277.00
962.66,2213.00
964.92,2255.00
967.17,2319.00
969.43,2361.00
971.68,2330.00
973.93,2298.00
976.18,2266.00
978.43,2266.00
980.68,2149.00
982.92,2108.00
985.17,2150.00
987.41,2149.00
989.65,2203.00
991.89,2276.00
994.12,2266.00
996.36,2182.00
998.59,2160.00
1000.83,2202.00
1003.06,2097.00
1005.29,2118.00
1007.51,2118.00
1009.74,2086.00
1011.97,2235.00
1014.19,2192.00
1016.41,2129.00
1018.63,2149.00
1020.85,2139.00
1023.07,2086.00
1025.28,2065.00
1027.49,2054.00
1029.71,2086.00
1031.92,2182.00
1034.13,2160.00
1036.33,2160.00
1038.54,2181.00
1040.74,2171.00
1042.95,2129.00
1045.15,2108.00
1047.35,2096.00
1049.55,2076.00
1051.74,2096.00
1053.94,2128.00
1056.13,2096.00
1058.32,2033.00
1060.51,2065.00
1062.70,2054.00
1064.89,2001.00
1067.08,2023.00
1069.26,2086.00
1071.44,2096.00
1073.63,2055.00
1075.81,2012.00
1077.98,1991.00
1080.16,1981.00
1082.34,1895.00
1084.51,2012.00
1086.68,2044.00
1088.85,2012.00
1091.02,1938.00
1093.19,1885.00
1095.35,2012.00
1097.52,2002.00
1099.68,1980.00
1101.84,1906.00
1104.00,1853.00
1106.16,1885.00
1108.32,1885.00
1110.48,1916.00
1112.63,1853.00
1114.78,1832.00
1116.93,1832.00
1119.08,1864.00
1121.23,1821.00
1123.38,1811.00
1125.52,1884.00
1127.67,1874.00
1129.81,1927.00
1131.95,1937.00
1134.09,1821.00
1136.22,1779.00
1138.36,1927.00
1140.50,1917.00
1142.63,1822.00
1144.76,1811.00
1146.89,1832.00
1149.02,1779.00
1151.15,1736.00
1153.27,1758.00
1155.40,1748.00
1157.52,1726.00
1159.64,1695.00
1161.76,1822.00
1163.88,1811.00
1165.99,1810.00
1168.11,1811.00
1170.22,1768.00
1172.34,1705.00
1174.45,1662.00
1176.56,1726.00
1178.66,1822.00
1180.77,1790.00
1182.88,1726.00
1184.98,1758.00
1187.08,1747.00
1189.18,1769.00
1191.28,1758.00
1193.38,1652.00
1195.47,1715.00
1197.57,1789.00
1199.66,1790.00
1201.75,1758.00
1203.85,1790.00
1205.93,1769.00
1208.02,1694.00
1210.11,1673.00
1212.19,1695.00
1214.28,1715.00
1216.36,1736.00
1218.44,1758.00
1220.52,1747.00
1222.59,1674.00
1224.67,1726.00
1226.74,1663.00
1228.82,1652.00
1230.89,1631.00
1232.96,1715.00
1235.03,1790.00
1237.10,1726.00
1239.16,1715.00
1241.23,1726.00
1243.29,1631.00
1245.35,1695.00
1247.41,1716.00
1249.47,1726.00
1251.53,1758.00
1253.58,1609.00
1255.64,1482.00
1257.69,1556.00
1259.74,1705.00
1261.79,1620.00
1263.84,1631.00
1265.89,1620.00
1267.93,1599.00
1269.98,1546.00
1272.02,1535.00
1274.06,1609.00
1276.10,1577.00
1278.14,1599.00
1280.18,1631.00
1282.22,1557.00
1284.25,1482.00
1286.28,1483.00
1288.32,1472.00
1290.35,1525.00
1292.38,1514.00
1294.40,1483.00
1296.43,1546.00
1298.46,1610.00
1300.48,1589.00
1302.50,1577.00
1304.52,1568.00
1306.54,1556.00
1308.56,1525.00
1310.58,1557.00
1312.59,1610.00
1314.60,1588.00
1316.62,1546.00
1318.63,1515.00
1320.64,1620.00
1322.65,1589.00
1324.65,1557.00
1326.66,1630.00
1328.66,1684.00
1330.66,1652.00
1332.67,1609.00
1334.67,1620.00
1336.66,1620.00
1338.66,1568.00
1340.66,1557.00
1342.65,1589.00
1344.65,1620.00
1346.64,1546.00
1348.63,1546.00
1350.62,1557.00
1352.60,1462.00
1354.59,1429.00
1356.57,1419.00
1358.56,1429.00
1360.54,1440.00
1362.52,1440.00
1364.50,1472.00
1366.48,1450.00
1368.46,1482.00
1370.43,1461.00
1372.41,1429.00
1374.38,1461.00
1376.35,1515.00
1378.32,1430.00
1380.29,1366.00
1382.25,1345.00
1384.22,1366.00
1386.18,1419.00
1388.15,1451.00
1390.11,1482.00
1392.07,1493.00
1394.03,1483.00
1395.99,1429.00
1397.94,1451.00
1399.90,1430.00
1401.85,1430.00
1403.80,1429.00
1405.76,1419.00
1407.71,1451.00
1409.65,1482.00
1411.60,1461.00
1413.55,1429.00
1415.49,1419.00
1417.44,1388.00
1419.38,1345.00
1421.32,1366.00
1423.26,1313.00
1425.19,1334.00
1427.13,1345.00
1429.07,1313.00
1431.00,1323.00
1432.93,1313.00
1434.86,1345.00
1436.79,1292.00
1438.72,1366.00
1440.65,1355.00
1442.57,1334.00
1444.50,1313.00
1446.42,1292.00
1448.34,1271.00
1450.26,1239.00
1452.18,1238.00
1454.10,1249.00
1456.02,1270.00
1457.93,1334.00
1459.85,1355.00
1461.76,1313.00
1463.67,1334.00
1465.58,1366.00
1467.49,1376.00
1469.40,1356.00
1471.31,1271.00
1473.21,1207.00
1475.11,1249.00
1477.02,1196.00
1478.92,1249.00
1480.82,1218.00
1482.72,1228.00
1484.61,1239.00
1486.51,1217.00
1488.40,1229.00
1490.30,1228.00
1492.19,1250.00
1494.08,1250.00
1495.97,1250.00
1497.86,1197.00
1499.74,1186.00
1501.63,1197.00
1503.51,1186.00
1505.40,1229.00
1507.28,1154.00
1509.16,1091.00
1511.04,1164.00
1512.92,1186.00
1514.79,1186.00
1516.67,1186.00
1518.54,1165.00
1520.42,1164.00
1522.29,1260.00
1524.16,1208.00
1526.03,1123.00
1527.89,1080.00
1529.76,1080.00
1531.63,1165.00
1533.49,1165.00
1535.35,1197.00
1537.21,1165.00
1539.07,1144.00
1540.93,1186.00
1542.79,1090.00
1544.65,1048.00
1546.50,1090.00
1548.36,1048.00
1550.21,1122.00
1552.06,1207.00
1553.91,1186.00
1555.76,1123.00
1557.61,1122.00
1559.45,1196.00
1561.30,1207.00
1563.14,1122.00
1564.98,1154.00
1566.82,1143.00
1568.67,1112.00
1570.50,1080.00
1572.34,1027.00
1574.18,1059.00
1576.01,1112.00
1577.85,1122.00
1579.68,1123.00
1581.51,1123.00
1583.34,1101.00
1585.17,1143.00
1587.00,1207.00
1588.82,1123.00
1590.65,1048.00
1592.47,1048.00
1594.30,1058.00
1596.12,1101.00
1597.94,1101.00
1599.76,1143.00
1601.57,1059.00
1603.39,1038.00
1605.21,1081.00
1607.02,1112.00
1608.83,1037.00
1610.64,1027.00
1612.45,1037.00
1614.26,1059.00
1616.07,1027.00
1617.88,1038.00
1619.68,1101.00
1621.49,1069.00
1623.29,996.00
1625.09,921.00
1626.89,942.00
1628.69,963.00
1630.49,996.00
1632.29,985.00
1634.08,996.00
1635.88,1037.00
1637.67,1048.00
1639.46,1059.00
1641.25,1048.00
1643.04,1017.00
1644.83,1038.00
1646.62,1017.00
1648.41,1006.00
1650.19,1006.00
1651.97,953.00
1653.76,910.00
1655.54,996.00
1657.32,1027.00
1659.10,985.00
1660.88,975.00
1662.65,974.00
1664.43,932.00
1666.20,985.00
1667.97,932.00
1669.75,932.00
1671.52,911.00
1673.29,869.00
1675.05,900.00
1676.82,931.00
1678.59,900.00
1680.35,921.00
1682.11,911.00
1683.88,900.00
1685.64,879.00
1687.40,868.00
1689.16,847.00
1690.91,869.00
1692.67,932.00
1694.42,910.00
1696.18,890.00
1697.93,911.00
1699.68,942.00
1701.43,879.00
1703.18,900.00
1704.93,953.00
1706.68,858.00
1708.42,815.00
1710.17,804.00
1711.91,794.00
1713.65,858.00
1715.39,826.00
1717.13,815.00
1718.87,847.00
1720.61,858.00
1722.35,847.00
1724.08,826.00
1725.81,784.00
1727.55,816.00
1729.28,858.00
1731.01,837.00
1732.74,847.00
1734.47,826.00
1736.19,847.00
1737.92,858.00
1739.64,868.00
1741.37,868.00
1743.09,847.00
1744.81,847.00
1746.53,794.00
1748.25,783.00
1749.97,826.00
1751.68,826.00
1753.40,816.00
1755.11,837.00
1756.83,794.00
1758.54,857.00
1760.25,858.00
1761.96,804.00
1763.67,762.00
1765.38,784.00
1767.08,783.00
1768.79,762.00
1770.49,699.00
1772.19,742.00
1773.90,773.00
1775.60,805.00
1777.30,763.00
1778.99,720.00
1780.69,741.00
1782.39,678.00
1784.08,678.00
1785.78,677.00
1787.47,731.00
1789.16,762.00
1790.85,783.00
1792.54,826.00
1794.23,752.00
1795.91,763.00
1797.60,752.00
1799.28,688.00
1800.97,699.00
1802.65,710.00
1804.33,709.00
1806.01,742.00
1807.69,741.00
1809.37,709.00
1811.05,730.00
1812.72,731.00
1814.40,731.00
1816.07,794.00
1817.74,815.00
1819.41,805.00
1821.08,773.00
1822.75,784.00
1824.42,826.00
1826.09,699.00
1827.75,699.00
1829.42,720.00
1831.08,720.00
1832.74,699.00
1834.40,656.00
1836.06,656.00
1837.72,635.00
1839.38,603.00
1841.04,656.00
1842.69,646.00
1844.35,646.00
1846.00,678.00
1847.65,678.00
1849.30,667.00
1850.95,636.00
1852.60,657.00
1854.25,678.00
1855.90,625.00
1857.54,614.00
1859.19,614.00
1860.83,646.00
1862.47,667.00
1864.12,677.00
1865.76,699.00
1867.40,709.00
1869.03,656.00
1870.67,635.00
1872.31,646.00
1873.94,593.00
1875.57,646.00
1877.21,657.00
1878.84,667.00
1880.47,593.00
1882.10,572.00
1883.73,551.00
1885.35,561.00
1886.98,657.00
1888.61,688.00
1890.23,614.00
1891.85,583.00
1893.47,551.00
1895.09,561.00
1896.71,646.00
1898.33,678.00
1899.95,657.00
1901.57,593.00
1903.18,625.00
1904.80,614.00
1906.41,582.00
1908.02,614.00
1909.63,668.00
1911.24,656.00
1912.85,646.00
1914.46,603.00
1916.07,593.00
1917.67,625.00
1919.28,593.00
1920.88,582.00
1922.48,572.00
1924.08,572.00
1925.68,625.00
1927.28,604.00
1928.88,593.00
1930.48,572.00
1932.07,572.00
1933.67,572.00
1935.26,582.00
1936.86,582.00
1938.45,593.00
1940.04,593.00
1941.63,561.00
1943.22,625.00
1944.80,625.00
1946.39,582.00
1947.98,572.00
1949.56,551.00
1951.14,551.00
1952.73,572.00
1954.31,561.00
1955.89,551.00
1957.47,561.00
1959.05,582.00
1960.62,636.00
1962.20,530.00
1963.77,519.00
1965.35,572.00
1966.92,551.00
1968.49,550.00
1970.06,508.00
1971.63,509.00
1973.20,561.00
1974.77,593.00
1976.34,593.00
1977.90,550.00
1979.47,519.00
1981.03,530.00
1982.59,509.00
1984.15,572.00
1985.71,529.00
1987.27,529.00
1988.83,572.00
1990.39,572.00
1991.94,540.00
1993.50,508.00
1995.05,561.00
1996.61,572.00
1998.16,508.00
1999.71,497.00
2001.26,551.00
2002.81,550.00
2004.36,550.00
2005.91,519.00
2007.45,561.00
2009.00,572.00
2010.54,561.00
2012.08,561.00
2013.62,614.00
2015.17,593.00
2016.71,540.00
2018.24,487.00
2019.78,530.00
2021.32,550.00
2022.85,530.00
2024.39,487.00
2025.92,498.00
2027.46,508.00
2028.99,508.00
2030.52,508.00
2032.05,487.00
2033.58,456.00
2035.10,497.00
2036.63,519.00
2038.16,487.00
2039.68,530.00
2041.21,582.00
2042.73,593.00
2044.25,561.00
2045.77,508.00
2047.29,498.00
2048.81,466.00
2050.33,487.00
2051.84,477.00
2053.36,487.00
2054.87,529.00
2056.39,551.00
2057.90,551.00
2059.41,519.00
2060.92,476.00
2062.43,487.00
2063.94,445.00
2065.45,456.00
2066.95,498.00
2068.46,529.00
2069.96,498.00
2071.47,519.00
2072.97,476.00
2074.47,477.00
2075.97,424.00
2077.47,488.00
2078.97,487.00
2080.47,519.00
2081.96,498.00
2083.46,455.00
2084.95,529.00
2086.45,519.00
2087.94,445.00
2089.43,413.00
2090.92,455.00
2092.41,466.00
2093.90,444.00
2095.39,424.00
2096.88,423.00
2098.36,444.00
2099.85,466.00
2101.33,445.00
2102.81,413.00
2104.30,339.00
2105.78,350.00
2107.26,402.00
2108.74,445.00
2110.21,413.00
2111.69,413.00
2113.17,424.00
2114.64,487.00
2116.12,476.00
2117.59,423.00
2119.06,402.00
2120.53,423.00
2122.00,466.00
2123.47,434.00
2124.94,360.00
2126.41,371.00
2127.87,403.00
2129.34,360.00
2130.80,402.00
2132.27,403.00
2133.73,413.00
2135.19,423.00
2136.65,445.00
2138.11,434.00
2139.57,455.00
2141.03,444.00
2142.48,424.00
2143.94,382.00
2145.39,424.00
2146.85,455.00
2148.30,413.00
2149.75,349.00
2151.20,381.00
2152.65,455.00
2154.10,466.00
2155.55,413.00
2157.00,381.00
2158.44,423.00
2159.89,455.00
2161.33,402.00
2162.78,360.00
2164.22,329.00
2165.66,381.00
2167.10,413.00
2168.54,413.00
2169.98,445.00
2171.42,423.00
2172.85,392.00
2174.29,476.00
2175.72,444.00
2177.16,371.00
2178.59,434.00
2180.02,435.00
2181.45,455.00
2182.88,434.00
2184.31,423.00
2185.74,371.00
2187.17,392.00
2188.59,370.00
2190.02,350.00
2191.44,350.00
2192.87,370.00
2194.29,360.00
2195.71,339.00
2197.13,392.00
2198.55,423.00
2199.97,371.00
2201.39,403.00
2202.81,423.00
2204.22,360.00
2205.64,339.00
2207.05,349.00
2208.46,381.00
2209.88,328.00
2211.29,349.00
2212.70,391.00
2214.11,339.00
2215.52,328.00
2216.92,381.00
2218.33,382.00
2219.74,339.00
2221.14,328.00
2222.54,360.00
2223.95,339.00
2225.35,360.00
2226.75,392.00
2228.15,371.00
2229.55,328.00
2230.95,328.00
2232.35,349.00
2233.74,381.00
2235.14,381.00
2236.53,349.00
2237.93,339.00
2239.32,402.00
2240.71,360.00
2242.10,255.00
2243.49,318.00
2244.88,307.00
2246.27,307.00
2247.66,338.00
2249.04,328.00
2250.43,297.00
2251.81,286.00
2253.20,307.00
2254.58,286.00
2255.96,275.00
2257.34,254.00
2258.72,297.00
2260.10,318.00
2261.48,339.00
2262.86,328.00
2264.23,296.00
2265.61,307.00
2266.98,350.00
2268.36,360.00
2269.73,318.00
2271.10,296.00
2272.47,296.00
2273.84,264.00
2275.21,254.00
2276.58,233.00
2277.95,254.00
2279.31,275.00
2280.68,296.00
2282.05,286.00
2283.41,233.00
2284.77,233.00
2286.13,255.00
2287.50,275.00
2288.86,275.00
2290.22,296.00
2291.57,329.00
2292.93,307.00
2294.29,243.00
2295.64,276.00
2297.00,286.00
2298.35,265.00
2299.71,222.00
2301.06,211.00
2302.41,265.00
2303.76,265.00
2305.11,296.00
2306.46,265.00
2307.81,265.00
2309.15,275.00
2310.50,296.00
2311.84,265.00
2313.19,254.00
2314.53,255.00
2315.87,264.00
2317.22,254.00
2318.56,328.00
2319.90,317.00
2321.24,307.00
2322.57,286.00
2323.91,222.00
2325.25,254.00
2326.58,297.00
2327.92,275.00
2329.25,286.00
2330.58,233.00
2331.91,222.00
2333.25,275.00
2334.58,307.00
2335.90,244.00
2337.23,222.00
2338.56,255.00
2339.89,265.00
2341.21,296.00
2342.54,254.00
2343.86,233.00
2345.19,265.00
2346.51,244.00
2347.83,233.00
2349.15,265.00
2350.47,233.00
2351.79,212.00
2353.11,243.00
2354.42,255.00
2355.74,307.00
2357.06,307.00
2358.37,233.00
2359.68,222.00
2361.00,254.00
2362.31,254.00
2363.62,233.00
2364.93,233.00
2366.24,243.00
2367.55,233.00
2368.86,212.00
2370.16,233.00
2371.47,286.00
2372.77,254.00
2374.08,222.00
2375.38,211.00
2376.68,264.00
2377.98,244.00
2379.29,243.00
2380.59,201.00
2381.88,180.00
2383.18,191.00
2384.48,201.00
2385.78,170.00
2387.07,201.00
2388.37,148.00
2389.66,190.00
2390.95,275.00
2392.25,275.00
2393.54,233.00
2394.83,243.00
2396.12,254.00
2397.41,254.00
2398.70,233.00
2399.98,223.00
2401.27,222.00
2402.55,212.00
2403.84,212.00
2405.12,223.00
2406.41,201.00
2407.69,254.00
2408.97,254.00
2410.25,254.00
2411.53,254.00
2412.81,211.00
2414.09,201.00
2415.36,191.00
2416.64,222.00
2417.91,212.00
2419.19,212.00
2420.46,191.00
2421.74,212.00
2423.01,201.00
2424.28,201.00
2425.55,180.00
2426.82,148.00
2428.09,149.00
2429.36,148.00
2430.62,201.00
2431.89,170.00
2433.15,190.00
2434.42,212.00
2435.68,201.00
2436.94,202.00
2438.21,169.00
2439.47,169.00
2440.73,191.00
2441.99,148.00
2443.25,148.00
2444.51,169.00
2445.76,180.00
2447.02,201.00
2448.27,222.00
2449.53,212.00
2450.78,159.00
2452.03,180.00
2453.29,149.00
2454.54,180.00
2455.79,180.00
2457.04,148.00
2458.29,148.00
2459.54,170.00
2460.78,211.00
2462.03,222.00
2463.27,169.00
2464.52,158.00
2465.76,159.00
2467.01,137.00
2468.25,169.00
2469.49,191.00
2470.73,170.00
2471.97,191.00
2473.21,191.00
2474.45,191.00
2475.69,212.00
2476.92,191.00
2478.16,233.00
2479.39,254.00
2480.63,222.00
2481.86,233.00
2483.09,212.00
2484.32,159.00
2485.56,128.00
2486.79,191.00
2488.02,169.00
2489.24,191.00
2490.47,190.00
2491.70,170.00
2492.92,190.00
2494.15,211.00
2495.37,212.00
2496.60,169.00
2497.82,127.00
2499.04,169.00
2500.26,169.00
2501.48,190.00
2502.70,159.00
2503.92,127.00
2505.14,158.00
2506.36,180.00
2507.58,137.00
2508.79,169.00
2510.01,180.00
2511.22,127.00
2512.43,169.00
2513.64,169.00
2514.86,127.00
2516.07,84.00
2517.28,148.00
2518.49,180.00
2519.70,148.00
2520.90,158.00
2522.11,180.00
2523.32,211.00
2524.52,137.00
2525.73,137.00
2526.93,127.00
2528.13,127.00
2529.33,127.00
2530.54,148.00
2531.74,149.00
2532.94,190.00
2534.14,169.00
2535.33,159.00
2536.53,159.00
2537.73,127.00
2538.92,170.00
2540.12,159.00
2541.31,159.00
2542.51,116.00
2543.70,137.00
2544.89,116.00
2546.08,95.00
2547.27,116.00
2548.46,169.00
2549.65,180.00
2550.84,201.00
2552.03,170.00
2553.21,148.00
2554.40,148.00
2555.58,85.00
2556.77,106.00
2557.95,127.00
2559.13,159.00
2560.31,137.00
2561.50,127.00
2562.68,127.00
2563.85,127.00
2565.03,127.00
2566.21,127.00
2567.39,137.00
2568.56,127.00
2569.74,170.00
2570.91,149.00
2572.09,84.00
2573.26,84.00
2574.43,127.00
2575.61,137.00
2576.78,127.00
2577.95,159.00
2579.12,137.00
2580.29,106.00
2581.45,127.00
2582.62,127.00
2583.79,127.00
2584.95,106.00
2586.12,137.00
2587.28,117.00
2588.44,116.00
2589.61,106.00
2590.77,85.00
2591.93,116.00
2593.09,127.00
2594.25,138.00
2595.41,116.00
2596.56,138.00
2597.72,106.00
2598.88,106.00
2600.03,117.00
2601.19,127.00
2602.34,95.00
2603.50,137.00
2604.65,148.00
2605.80,148.00
2606.95,137.00
2608.10,106.00
2609.25,127.00
2610.40,84.00
2611.55,85.00
2612.70,137.00
2613.84,85.00
2614.99,74.00
2616.13,85.00
2617.28,53.00
2618.42,85.00
2619.56,169.00
2620.71,180.00
2621.85,148.00
2622.99,148.00
2624.13,169.00
2625.27,180.00
2626.40,148.00
2627.54,159.00
2628.68,116.00
2629.81,137.00
2630.95,127.00
2632.08,85.00
2633.22,106.00
2634.35,106.00
2635.48,85.00
2636.61,116.00
2637.74,64.00
2638.87,63.00
2640.00,127.00
2641.13,95.00
2642.26,63.00
2643.39,52.00
2644.51,85.00
2645.64,84.00
2646.76,64.00
2647.89,127.00
2649.01,127.00
2650.13,106.00
2651.25,95.00
2652.38,127.00
2653.50,127.00
2654.62,116.00
2655.73,84.00
2656.85,63.00
2657.97,106.00
2659.09,117.00
2660.20,117.00
2661.32,74.00
2662.43,85.00
2663.55,74.00
2664.66,53.00
2665.77,95.00
2666.88,117.00
2667.99,106.00
2669.10,127.00
2670.21,116.00
2671.32,106.00
2672.43,43.00
2673.54,64.00
2674.64,85.00
2675.75,106.00
2676.85,148.00
2677.96,64.00
2679.06,84.00
2680.16,106.00
2681.26,63.00
2682.37,105.00
2683.47,106.00
2684.57,137.00
2685.66,106.00
2686.76,74.00
2687.86,21.00
2688.96,42.00
2690.05,84.00
2691.15,95.00
2692.24,128.00
2693.34,95.00
2694.43,95.00
2695.52,84.00
2696.62,85.00
2697.71,148.00
2698.80,106.00
2699.89,105.00
2700.98,117.00
2702.06,64.00
2703.15,74.00
2704.24,106.00
2705.32,149.00
2706.41,106.00
2707.49,148.00
2708.58,127.00
2709.66,85.00
2710.74,106.00
2711.83,138.00
2712.91,106.00
2713.99,127.00
2715.07,106.00
2716.15,84.00
2717.22,127.00
2718.30,117.00
2719.38,95.00
2720.45,85.00
2721.53,85.00
2722.60,85.00
2723.68,85.00
2724.75,84.00
2725.82,127.00
2726.89,149.00
2727.97,63.00
2729.04,95.00
2730.11,85.00
2731.17,64.00
2732.24,74.00
2733.31,106.00
2734.38,84.00
2735.44,127.00
2736.51,127.00
2737.57,105.00
2738.64,42.00
2739.70,42.00
2740.76,85.00
2741.82,42.00
2742.89,53.00
2743.95,85.00
2745.01,85.00
2746.07,75.00
2747.12,52.00
2748.18,64.00
2749.24,63.00
2750.29,53.00
2751.35,106.00
2752.40,74.00
2753.46,64.00
2754.51,85.00
2755.57,84.00
2756.62,116.00
2757.67,85.00
2758.72,74.00
2759.77,31.00
2760.82,106.00
2761.87,106.00
2762.91,117.00
2763.96,127.00
2765.01,95.00
2766.05,96.00
2767.10,64.00
2768.14,21.00
2769.19,63.00
2770.23,127.00
2771.27,85.00
2772.31,74.00
2773.35,127.00
2774.40,63.00
2775.43,21.00
2776.47,53.00
2777.51,85.00
2778.55,85.00
2779.59,64.00
2780.62,84.00
2781.66,127.00
2782.69,116.00
2783.73,85.00
2784.76,85.00
2785.79,84.00
2786.82,96.00
2787.85,84.00
2788.89,63.00
2789.92,64.00
2790.94,63.00
2791.97,85.00
2793.00,85.00
2794.03,84.00
2795.05,84.00
2796.08,95.00
2797.11,53.00
2798.13,95.00
2799.15,116.00
2800.18,85.00
2801.20,74.00
2802.22,64.00
2803.24,42.00
2804.26,85.00
2805.28,106.00
2806.30,106.00
2807.32,85.00
2808.34,64.00
2809.35,53.00
2810.37,53.00
2811.39,84.00
2812.40,64.00
2813.41,63.00
2814.43,74.00
2815.44,31.00
2816.45,42.00
2817.46,53.00
2818.48,21.00
2819.49,43.00
2820.49,63.00
2821.50,138.00
2822.51,106.00
2823.52,63.00
2824.53,63.00
2825.53,32.00
2826.54,43.00
2827.54,85.00
2828.55,43.00
2829.55,21.00
2830.55,0.00
2831.55,43.00
2832.56,42.00
2833.56,63.00
2834.56,53.00
2835.56,11.00
2836.56,74.00
2837.55,85.00
2838.55,105.00
2839.55,127.00
2840.54,42.00
2841.54,11.00
2842.53,75.00
2843.53,95.00
2844.52,116.00
2845.51,138.00
2846.51,106.00
2847.50,74.00
2848.49,85.00
2849.48,53.00
2850.47,95.00
2851.46,74.00
2852.45,53.00
2853.43,63.00
2854.42,96.00
2855.41,53.00
2856.39,42.00
2857.38,32.00
2858.36,21.00
2859.34,0.00
2860.33,0.00
2861.31,42.00
2862.29,53.00
2863.27,53.00
2864.25,74.00
2865.23,85.00
2866.21,63.00
2867.19,42.00
2868.17,32.00
2869.14,43.00
2870.12,64.00
2871.09,64.00
2872.07,106.00
2873.04,106.00
2874.02,63.00
2874.99,42.00
2875.96,53.00
2876.93,53.00
2877.91,85.00
2878.88,84.00
2879.85,22.00
2880.82,0.00
2881.78,0.00
2882.75,32.00
2883.72,74.00
2884.69,21.00
2885.65,11.00
2886.62,43.00
2887.58,53.00
2888.55,63.00
2889.51,85.00
2890.47,85.00
2891.43,95.00
2892.39,95.00
2893.36,85.00
2894.31,21.00
2895.27,0.00
2896.23,10.00
2897.19,53.00
2898.15,0.00
2899.11,42.00
2900.06,53.00
2901.02,53.00
2901.97,-21.00
2902.93,53.00
2903.88,116.00
2904.83,106.00
2905.79,74.00
2906.74,63.00
2907.69,52.00
2908.64,96.00
2909.59,106.00
2910.54,74.00
2911.49,42.00
2912.43,32.00
2913.38,95.00
2914.33,42.00
2915.27,10.00
2916.22,95.00
2917.16,85.00
2918.11,63.00
2919.05,10.00
2919.99,53.00
2920.94,84.00
2921.88,85.00
2922.82,64.00
2923.76,84.00
2924.70,64.00
2925.64,84.00
2926.58,74.00
2927.51,74.00
2928.45,74.00
2929.39,64.00
2930.32,43.00
2931.26,32.00
2932.19,53.00
2933.13,95.00
2934.06,63.00
2934.99,32.00
2935.92,42.00
2936.86,63.00
2937.79,42.00
2938.72,63.00
2939.65,95.00
2940.57,42.00
2941.50,105.00
2942.43,64.00
2943.36,63.00
2944.28,42.00
2945.21,52.00
2946.13,22.00
2947.06,21.00
2947.98,21.00
2948.91,32.00
2949.83,32.00
2950.75,31.00
2951.67,21.00
2952.59,74.00
2953.51,106.00
2954.43,95.00
2955.35,85.00
2956.27,85.00
2957.19,53.00
2958.10,53.00
2959.02,84.00
2959.94,63.00
2960.85,42.00
2961.77,63.00
2962.68,10.00
2963.59,53.00
2964.51,84.00
2965.42,85.00
2966.33,0.00
2967.24,-53.00
2968.15,0.00
2969.06,-11.00
2969.97,-11.00
2970.88,-21.00
2971.78,43.00
2972.69,106.00
2973.60,85.00
2974.50,42.00
2975.41,21.00
2976.31,0.00
2977.22,0.00
2978.12,43.00
2979.02,85.00
2979.93,64.00
2980.83,21.00
2981.73,11.00
2982.63,85.00
2983.53,43.00
2984.43,43.00
2985.33,53.00
2986.22,32.00
2987.12,0.00
2988.02,0.00
2988.91,21.00
2989.81,85.00
2990.70,53.00
2991.60,53.00
2992.49,137.00
2993.38,75.00
2994.28,-11.00
2995.17,32.00
2996.06,0.00
2996.95,11.00
2997.84,53.00
2998.73,31.00
2999.62,53.00
3000.51,21.00
3001.40,21.00
3002.28,43.00
3003.17,0.00
3004.05,-74.00
3004.94,-64.00
3005.82,-11.00
3006.71,43.00
3007.59,63.00
3008.47,63.00
3009.36,43.00
3010.24,32.00
3011.12,53.00
3012.00,53.00
3012.88,0.00
3013.76,0.00
3014.64,32.00
3015.51,42.00
3016.39,21.00
3017.27,0.00
3018.14,21.00
3019.02,42.00
3019.89,21.00
3020.77,0.00
3021.64,21.00
3022.52,21.00
3023.39,10.00
3024.26,43.00
3025.13,31.00
3026.00,43.00
3026.87,43.00
3027.74,43.00
3028.61,53.00
3029.48,42.00
3030.35,-21.00
3031.21,0.00
3032.08,21.00
3032.95,21.00
3033.81,-43.00
3034.68,0.00
3035.54,74.00
3036.40,63.00
3037.27,52.00
3038.13,63.00
3038.99,85.00
3039.85,21.00
3040.71,53.00
3041.57,-11.00
3042.43,-21.00
3043.29,63.00
3044.15,32.00
3045.01,31.00
3045.86,32.00
3046.72,32.00
3047.58,32.00
3048.43,-32.00
3049.29,-32.00
3050.14,11.00
3050.99,64.00
3051.85,21.00
3052.70,-11.00
3053.55,42.00
3054.40,84.00
3055.25,85.00
3056.10,31.00
3056.95,-32.00
3057.80,42.00
3058.65,63.00
3059.50,42.00
3060.34,31.00
3061.19,-11.00
3062.04,0.00
3062.88,0.00
3063.73,21.00
3064.57,42.00
3065.42,-22.00
3066.26,-11.00
3067.10,0.00
3067.94,0.00
3068.78,32.00
3069.63,43.00
3070.47,42.00
3071.31,32.00
3072.14,32.00
3072.98,32.00
3073.82,32.00
3074.66,64.00
3075.49,31.00
3076.33,0.00
3077.17,21.00
3078.00,0.00
3078.83,10.00
3079.67,11.00
3080.50,-21.00
3081.33,21.00
3082.17,32.00
3083.00,42.00
3083.83,43.00
3084.66,11.00
3085.49,32.00
3086.32,21.00
3087.15,21.00
3087.97,74.00
3088.80,53.00
3089.63,10.00
3090.46,21.00
3091.28,-21.00
3092.11,0.00
3092.93,32.00
3093.75,63.00
3094.58,64.00
3095.40,63.00
3096.22,64.00
3097.05,53.00
3097.87,42.00
3098.69,21.00
3099.51,11.00
3100.33,10.00
3101.15,11.00
3101.96,63.00
3102.78,53.00
3103.60,21.00
3104.42,74.00
3105.23,42.00
3106.05,-21.00
3106.86,-21.00
3107.68,42.00
3108.49,0.00
3109.30,-11.00
3110.12,0.00
3110.93,-32.00
3111.74,0.00
3112.55,0.00
3113.36,21.00
3114.17,42.00
3114.98,85.00
3115.79,43.00
3116.60,0.00
3117.40,-42.00
3118.21,-32.00
3119.02,21.00
3119.82,42.00
3120.63,43.00
3121.43,0.00
3122.24,-53.00
3123.04,0.00
3123.84,32.00
3124.65,-21.00
3125.45,-32.00
3126.25,0.00
3127.05,43.00
3127.85,21.00
3128.65,64.00
3129.45,63.00
3130.25,10.00
3131.05,53.00
3131.84,64.00
3132.64,-11.00
3133.44,21.00
3134.23,43.00
3135.03,43.00
3135.82,63.00
3136.62,32.00
3137.41,53.00
3138.20,63.00
3139.00,32.00
3139.79,21.00
3140.58,21.00
3141.37,74.00
3142.16,0.00
3142.95,-22.00
3143.74,53.00
3144.53,21.00
3145.32,21.00
3146.10,10.00
3146.89,21.00
3147.68,10.00
3148.46,11.00
3149.25,53.00
3150.03,-21.00
3150.82,-11.00
3151.60,0.00
3152.38,0.00
3153.17,21.00
3153.95,0.00
3154.73,-63.00
3155.51,-11.00
3156.29,32.00
3157.07,32.00
3157.85,42.00
3158.63,64.00
3159.41,64.00
3160.18,43.00
3160.96,64.00
3161.74,0.00
3162.51,0.00
3163.29,21.00
3164.06,42.00
3164.84,32.00
3165.61,53.00
3166.38,21.00
3167.16,31.00
3167.93,63.00
3168.70,32.00
3169.47,22.00
3170.24,0.00
3171.01,85.00
3171.78,74.00
3172.55,11.00
3173.32,0.00
3174.09,0.00
3174.85,53.00
3175.62,21.00
3176.39,10.00
3177.15,-11.00
3177.92,52.00
3178.68,32.00
3179.45,-11.00
3180.21,-11.00
3180.97,42.00
3181.73,21.00
3182.50,11.00
3183.26,42.00
3184.02,32.00
3184.78,21.00
3185.54,42.00
3186.30,21.00
3187.05,32.00
3187.81,-21.00
3188.57,11.00
3189.33,-21.00
3190.08,-22.00
3190.84,0.00
3191.59,31.00
3192.35,74.00
3193.10,21.00
3193.86,64.00
3194.61,74.00
3195.36,43.00
3196.12,42.00
3196.87,11.00
3197.62,-43.00
3198.37,-32.00
3199.12,10.00
3199.87,43.00
3200.62,11.00
3201.36,-10.00
3202.11,10.00
3202.86,32.00
3203.61,21.00
3204.35,0.00
3205.10,-11.00
3205.84,-32.00
3206.59,0.00
3207.33,-21.00
3208.08,10.00
3208.82,-11.00
3209.56,-32.00
3210.30,-43.00
3211.05,-11.00
3211.79,31.00
3212.53,10.00
3213.27,-32.00
3214.01,21.00
3214.75,22.00
3215.48,42.00
3216.22,43.00
3216.96,21.00
3217.69,0.00
3218.43,0.00
3219.17,-74.00
3219.90,21.00
3220.64,21.00
3221.37,21.00
3222.10,53.00
3222.84,63.00
3223.57,21.00
3224.30,-11.00
3225.03,43.00
3225.76,85.00
3226.49,21.00
3227.22,21.00
3227.95,31.00
3228.68,21.00
3229.41,0.00
3230.14,0.00
3230.87,11.00
3231.59,10.00
3232.32,43.00
3233.04,21.00
3233.77,-95.00
3234.49,-21.00
3235.22,43.00
3235.94,21.00
3236.66,11.00
3237.39,-11.00
3238.11,-11.00
3238.83,0.00
3239.55,0.00
3240.27,21.00
3240.99,-21.00
3241.71,-21.00
3242.43,0.00
3243.15,31.00
3243.87,21.00
3244.58,-10.00
3245.30,-95.00
3246.02,-31.00
3246.73,53.00
3247.45,106.00
3248.16,53.00
3248.88,-11.00
3249.59,-22.00
3250.30,-21.00
3251.01,42.00
3251.73,32.00
3252.44,-43.00
3253.15,-21.00
3253.86,0.00
3254.57,-43.00
3255.28,31.00
3255.99,42.00
3256.70,0.00
3257.41,-31.00
3258.11,-53.00
3258.82,10.00
3259.53,-42.00
3260.23,-64.00
3260.94,-10.00
3261.64,10.00
3262.35,0.00
3263.05,31.00
3263.76,42.00
3264.46,42.00
3265.16,-21.00
3265.86,-53.00
3266.56,0.00
3267.26,-21.00
3267.97,21.00
3268.67,42.00
3269.36,43.00
3270.06,42.00
3270.76,64.00
3271.46,63.00
3272.16,11.00
3272.85,0.00
