RamanShift,Intensity
180.91,296.00
183.74,275.00
186.56,339.00
189.39,508.00
192.21,804.00
195.03,1038.00
197.84,1430.00
200.66,1991.00
203.47,2531.00
206.28,3039.00
209.09,3600.00
211.89,4045.00
214.70,4416.00
217.50,4701.00
220.30,4860.00
223.10,5040.00
225.89,5157.00
228.69,5188.00
231.48,5209.00
234.27,5242.00
237.05,5306.00
239.84,5231.00
242.62,5273.00
245.40,5305.00
248.18,5210.00
250.96,5062.00
253.73,5009.00
256.51,4966.00
259.28,4935.00
262.05,4860.00
264.81,4882.00
267.58,4998.00
270.34,4987.00
273.10,4893.00
275.86,4839.00
278.61,4723.00
281.37,4786.00
284.12,4786.00
286.87,4797.00
289.62,4680.00
292.36,4649.00
295.11,4648.00
297.85,4669.00
300.59,4691.00
303.33,4648.00
306.06,4659.00
308.80,4754.00
311.53,4755.00
314.26,4839.00
316.99,4775.00
319.71,4713.00
322.44,4712.00
325.16,4722.00
327.88,4755.00
330.59,4628.00
333.31,4607.00
336.02,4670.00
338.73,4627.00
341.44,4596.00
344.15,4564.00
346.86,4596.00
349.56,4575.00
352.26,4617.00
354.96,4659.00
357.66,4733.00
360.35,4659.00
363.05,4553.00
365.74,4659.00
368.43,4775.00
371.12,4713.00
373.80,4734.00
376.48,4787.00
379.17,4797.00
381.85,4754.00
384.52,4702.00
387.20,4744.00
389.87,4797.00
392.54,4829.00
395.21,4818.00
397.88,4829.00
400.55,4881.00
403.21,4818.00
405.87,4712.00
408.53,4755.00
411.19,4903.00
413.84,4892.00
416.50,4861.00
419.15,4903.00
421.80,4882.00
424.45,4839.00
427.10,4828.00
429.74,4882.00
432.38,4871.00
435.02,4903.00
437.66,4903.00
440.30,4818.00
442.93,4818.00
445.56,4840.00
448.19,4892.00
450.82,4892.00
453.45,4818.00
456.07,4913.00
458.70,4924.00
461.32,4860.00
463.94,4903.00
466.55,4893.00
469.17,4786.00
471.78,4861.00
474.39,4998.00
477.00,4924.00
479.61,4829.00
482.22,4903.00
484.82,4797.00
487.42,4829.00
490.02,4902.00
492.62,4840.00
495.21,4818.00
497.81,4755.00
500.40,4733.00
502.99,4828.00
505.58,4754.00
508.17,4733.00
510.75,4775.00
513.33,4828.00
515.91,4818.00
518.49,4765.00
521.07,4617.00
523.65,4606.00
526.22,4765.00
528.79,4733.00
531.36,4723.00
533.93,4691.00
536.49,4712.00
539.06,4797.00
541.62,4786.00
544.18,4765.00
546.74,4818.00
549.30,4713.00
551.85,4596.00
554.40,4617.00
556.95,4712.00
559.50,4808.00
562.05,4723.00
564.59,4511.00
567.14,4554.00
569.68,4521.00
572.22,4469.00
574.76,4564.00
577.29,4670.00
579.83,4638.00
582.36,4533.00
584.89,4575.00
587.42,4500.00
589.95,4500.00
592.47,4564.00
594.99,4489.00
597.52,4383.00
600.04,4373.00
602.55,4437.00
605.07,4395.00
607.58,4373.00
610.09,4437.00
612.60,4331.00
615.11,4341.00
617.62,4331.00
620.12,4341.00
622.63,4289.00
625.13,4288.00
627.63,4247.00
630.13,4225.00
632.62,4267.00
635.12,4299.00
637.61,4247.00
640.10,4246.00
642.59,4246.00
645.07,4161.00
647.56,4203.00
650.04,4183.00
652.52,4162.00
655.00,4193.00
657.48,4056.00
659.96,4066.00
662.43,4225.00
664.90,4299.00
667.37,4310.00
669.84,4172.00
672.31,4119.00
674.78,4140.00
677.24,4183.00
679.70,4172.00
682.16,4182.00
684.62,4246.00
687.08,4130.00
689.53,4172.00
691.98,4129.00
694.43,3971.00
696.88,4003.00
699.33,4098.00
701.78,4076.00
704.22,3971.00
706.66,3971.00
709.10,4014.00
711.54,3950.00
713.98,3950.00
716.42,4023.00
718.85,3971.00
721.28,3949.00
723.71,4045.00
726.14,4225.00
728.57,4331.00
730.99,4300.00
733.41,4204.00
735.83,4129.00
738.25,4014.00
740.67,4002.00
743.09,3981.00
745.50,3865.00
747.91,3770.00
750.33,3833.00
752.73,3833.00
755.14,3759.00
757.55,3780.00
759.95,3706.00
762.35,3738.00
764.75,3780.00
767.15,3653.00
769.55,3643.00
771.95,3759.00
774.34,3717.00
776.73,3643.00
779.12,3611.00
781.51,3695.00
783.90,3728.00
786.28,3717.00
788.67,3717.00
791.05,3717.00
793.43,3611.00
795.80,3505.00
798.18,3590.00
800.56,3611.00
802.93,3600.00
805.30,3569.00
807.67,3558.00
810.04,3589.00
812.40,3611.00
814.77,3516.00
817.13,3431.00
819.49,3473.00
821.85,3505.00
824.21,3452.00
826.57,3378.00
828.92,3420.00
831.27,3452.00
833.63,3548.00
835.98,3473.00
838.32,3356.00
840.67,3335.00
843.01,3293.00
845.36,3389.00
847.70,3368.00
850.04,3251.00
852.37,3176.00
854.71,3208.00
857.05,3294.00
859.38,3368.00
861.71,3399.00
864.04,3368.00
866.37,3325.00
868.69,3208.00
871.02,3261.00
873.34,3335.00
875.66,3356.00
877.98,3325.00
880.30,3240.00
882.62,3294.00
884.93,3303.00
887.24,3208.00
889.55,3145.00
891.86,3188.00
894.17,3145.00
896.48,3081.00
898.78,3081.00
901.09,3060.00
903.39,3039.00
905.69,3060.00
907.99,3081.00
910.28,3134.00
912.58,3082.00
914.87,3114.00
917.16,3113.00
919.45,3060.00
921.74,3050.00
924.03,3071.00
926.31,3050.00
928.60,3060.00
930.88,3124.00
933.16,3124.00
935.44,3145.00
937.72,3155.00
939.99,3145.00
942.26,3092.00
944.54,3071.00
946.81,3092.00
949.08,3082.00
951.34,3092.00
953.61,2997.00
955.87,2933.00
958.14,3092.00
960.40,3071.00
962.66,2997.00
964.92,2987.00
967.17,2944.00
969.43,2880.00
971.68,2848.00
973.93,2891.00
976.18,2944.00
978.43,2901.00
980.68,2827.00
982.92,2891.00
985.17,2890.00
987.41,2743.00
989.65,2785.00
991.89,2764.00
994.12,2753.00
996.36,2891.00
998.59,2891.00
1000.83,2796.00
1003.06,2742.00
1005.29,2722.00
1007.51,2764.00
1009.74,2679.00
1011.97,2679.00
1014.19,2721.00
1016.41,2827.00
1018.63,2859.00
1020.85,2732.00
1023.07,2742.00
1025.28,2753.00
1027.49,2722.00
1029.71,2700.00
1031.92,2711.00
1034.13,2700.00
1036.33,2679.00
1038.54,2657.00
1040.74,2732.00
1042.95,2785.00
1045.15,2711.00
1047.35,2679.00
1049.55,2562.00
1051.74,2658.00
1053.94,2605.00
1056.13,2541.00
1058.32,2626.00
1060.51,2647.00
1062.70,2605.00
1064.89,2657.00
1067.08,2615.00
1069.26,2636.00
1071.44,2658.00
1073.63,2541.00
1075.81,2488.00
1077.98,2415.00
1080.16,2489.00
1082.34,2573.00
1084.51,2520.00
1086.68,2467.00
1088.85,2414.00
1091.02,2435.00
1093.19,2499.00
1095.35,2499.00
1097.52,2457.00
1099.68,2436.00
1101.84,2488.00
1104.00,2509.00
1106.16,2478.00
1108.32,2372.00
1110.48,2340.00
1112.63,2425.00
1114.78,2509.00
1116.93,2425.00
1119.08,2446.00
1121.23,2446.00
1123.38,2425.00
1125.52,2383.00
1127.67,2425.00
1129.81,2382.00
1131.95,2351.00
1134.09,2361.00
1136.22,2404.00
1138.36,2340.00
1140.50,2298.00
1142.63,2340.00
1144.76,2425.00
1146.89,2415.00
1149.02,2372.00
1151.15,2330.00
1153.27,2308.00
1155.40,2351.00
1157.52,2403.00
1159.64,2372.00
1161.76,2287.00
1163.88,2329.00
1165.99,2256.00
1168.11,2224.00
1170.22,2171.00
1172.34,2213.00
1174.45,2160.00
1176.56,2139.00
1178.66,2266.00
1180.77,2256.00
1182.88,2213.00
1184.98,2297.00
1187.08,2266.00
1189.18,2192.00
1191.28,2213.00
1193.38,2234.00
1195.47,2213.00
1197.57,2234.00
1199.66,2245.00
1201.75,2202.00
1203.85,2223.00
1205.93,2235.00
1208.02,2160.00
1210.11,2149.00
1212.19,2214.00
1214.28,2266.00
1216.36,2234.00
1218.44,2277.00
1220.52,2245.00
1222.59,2150.00
1224.67,2139.00
1226.74,2192.00
1228.82,2213.00
1230.89,2160.00
1232.96,2128.00
1235.03,2160.00
1237.10,2160.00
1239.16,2096.00
1241.23,2076.00
1243.29,2107.00
1245.35,2171.00
1247.41,2192.00
1249.47,2182.00
1251.53,2139.00
1253.58,2044.00
1255.64,2076.00
1257.69,2128.00
1259.74,2150.00
1261.79,2181.00
1263.84,2096.00
1265.89,2065.00
1267.93,2054.00
1269.98,2023.00
1272.02,1980.00
1274.06,2012.00
1276.10,2075.00
1278.14,2044.00
1280.18,2012.00
1282.22,1959.00
1284.25,1938.00
1286.28,1970.00
1288.32,1948.00
1290.35,1981.00
1292.38,2001.00
1294.40,1980.00
1296.43,1949.00
1298.46,1896.00
1300.48,1969.00
1302.50,1970.00
1304.52,1981.00
1306.54,1980.00
1308.56,2012.00
1310.58,2065.00
1312.59,1948.00
1314.60,1916.00
1316.62,1885.00
1318.63,1969.00
1320.64,2022.00
1322.65,2096.00
1324.65,2064.00
1326.66,2012.00
1328.66,2107.00
1330.66,2107.00
1332.67,2097.00
1334.67,2054.00
1336.66,1980.00
1338.66,2012.00
1340.66,1980.00
1342.65,1949.00
1344.65,1949.00
1346.64,1917.00
1348.63,1927.00
1350.62,1895.00
1352.60,1885.00
1354.59,1885.00
1356.57,1895.00
1358.56,1895.00
1360.54,1885.00
1362.52,1842.00
1364.50,1832.00
1366.48,1779.00
1368.46,1821.00
1370.43,1949.00
1372.41,1885.00
1374.38,1747.00
1376.35,1789.00
1378.32,1821.00
1380.29,1800.00
1382.25,1779.00
1384.22,1874.00
1386.18,1842.00
1388.15,1800.00
1390.11,1842.00
1392.07,1853.00
1394.03,1895.00
1395.99,1800.00
1397.94,1748.00
1399.90,1758.00
1401.85,1737.00
1403.80,1705.00
1405.76,1737.00
1407.71,1758.00
1409.65,1716.00
1411.60,1662.00
1413.55,1758.00
1415.49,1673.00
1417.44,1652.00
1419.38,1747.00
1421.32,1811.00
1423.26,1715.00
1425.19,1652.00
1427.13,1588.00
1429.07,1631.00
1431.00,1705.00
1432.93,1631.00
1434.86,1641.00
1436.79,1694.00
1438.72,1642.00
1440.65,1610.00
1442.57,1673.00
1444.50,1684.00
1446.42,1673.00
1448.34,1663.00
1450.26,1630.00
1452.18,1620.00
1454.10,1620.00
1456.02,1630.00
1457.93,1610.00
1459.85,1589.00
1461.76,1620.00
1463.67,1673.00
1465.58,1588.00
1467.49,1599.00
1469.40,1620.00
1471.31,1620.00
1473.21,1599.00
1475.11,1535.00
1477.02,1567.00
1478.92,1546.00
1480.82,1588.00
1482.72,1535.00
1484.61,1504.00
1486.51,1514.00
1488.40,1577.00
1490.30,1493.00
1492.19,1535.00
1494.08,1599.00
1495.97,1578.00
1497.86,1567.00
1499.74,1482.00
1501.63,1536.00
1503.51,1514.00
1505.40,1462.00
1507.28,1525.00
1509.16,1514.00
1511.04,1482.00
1512.92,1546.00
1514.79,1514.00
1516.67,1483.00
1518.54,1504.00
1520.42,1546.00
1522.29,1493.00
1524.16,1515.00
1526.03,1535.00
1527.89,1419.00
1529.76,1388.00
1531.63,1387.00
1533.49,1408.00
1535.35,1504.00
1537.21,1525.00
1539.07,1503.00
1540.93,1515.00
1542.79,1546.00
1544.65,1536.00
1546.50,1514.00
1548.36,1482.00
1550.21,1398.00
1552.06,1376.00
1553.91,1482.00
1555.76,1483.00
1557.61,1461.00
1559.45,1451.00
1561.30,1376.00
1563.14,1355.00
1564.98,1345.00
1566.82,1388.00
1568.67,1482.00
1570.50,1408.00
1572.34,1335.00
1574.18,1398.00
1576.01,1419.00
1577.85,1376.00
1579.68,1281.00
1581.51,1270.00
1583.34,1314.00
1585.17,1366.00
1587.00,1377.00
1588.82,1377.00
1590.65,1334.00
1592.47,1345.00
1594.30,1387.00
1596.12,1398.00
1597.94,1345.00
1599.76,1355.00
1601.57,1366.00
1603.39,1366.00
1605.21,1356.00
1607.02,1324.00
1608.83,1260.00
1610.64,1291.00
1612.45,1313.00
1614.26,1313.00
1616.07,1324.00
1617.88,1366.00
1619.68,1366.00
1621.49,1313.00
1623.29,1207.00
1625.09,1238.00
1626.89,1250.00
1628.69,1250.00
1630.49,1260.00
1632.29,1207.00
1634.08,1239.00
1635.88,1271.00
1637.67,1239.00
1639.46,1218.00
1641.25,1260.00
1643.04,1239.00
1644.83,1271.00
1646.62,1291.00
1648.41,1281.00
1650.19,1228.00
1651.97,1186.00
1653.76,1144.00
1655.54,1154.00
1657.32,1218.00
1659.10,1250.00
1660.88,1292.00
1662.65,1260.00
1664.43,1207.00
1666.20,1186.00
1667.97,1239.00
1669.75,1197.00
1671.52,1165.00
1673.29,1165.00
1675.05,1176.00
1676.82,1186.00
1678.59,1186.00
1680.35,1111.00
1682.11,1069.00
1683.88,1112.00
1685.64,1091.00
1687.40,1144.00
1689.16,1133.00
1690.91,1154.00
1692.67,1101.00
1694.42,1080.00
1696.18,1102.00
1697.93,1154.00
1699.68,1186.00
1701.43,1165.00
1703.18,1154.00
1704.93,1155.00
1706.68,1111.00
1708.42,1101.00
1710.17,1122.00
1711.91,1122.00
1713.65,1102.00
1715.39,1091.00
1717.13,1143.00
1718.87,1133.00
1720.61,1048.00
1722.35,1069.00
1724.08,1059.00
1725.81,1027.00
1727.55,1038.00
1729.28,995.00
1731.01,1069.00
1732.74,1112.00
1734.47,1101.00
1736.19,1058.00
1737.92,1069.00
1739.64,1038.00
1741.37,984.00
1743.09,1038.00
1744.81,1081.00
1746.53,1048.00
1748.25,1048.00
1749.97,1016.00
1751.68,1017.00
1753.40,1038.00
1755.11,1038.00
1756.83,963.00
1758.54,931.00
1760.25,953.00
1761.96,921.00
1763.67,921.00
1765.38,953.00
1767.08,943.00
1768.79,889.00
1770.49,932.00
1772.19,985.00
1773.90,964.00
1775.60,964.00
1777.30,943.00
1778.99,921.00
1780.69,943.00
1782.39,942.00
1784.08,963.00
1785.78,995.00
1787.47,1006.00
1789.16,1048.00
1790.85,1027.00
1792.54,932.00
1794.23,878.00
1795.91,931.00
1797.60,1017.00
1799.28,1017.00
1800.97,1059.00
1802.65,1049.00
1804.33,985.00
1806.01,964.00
1807.69,963.00
1809.37,900.00
1811.05,858.00
1812.72,869.00
1814.40,943.00
1816.07,996.00
1817.74,953.00
1819.41,974.00
1821.08,964.00
1822.75,995.00
1824.42,943.00
1826.09,910.00
1827.75,900.00
1829.42,910.00
1831.08,900.00
1832.74,931.00
1834.40,953.00
1836.06,985.00
1837.72,953.00
1839.38,931.00
1841.04,890.00
1842.69,869.00
1844.35,868.00
1846.00,900.00
1847.65,878.00
1849.30,847.00
1850.95,826.00
1852.60,910.00
1854.25,911.00
1855.90,836.00
1857.54,858.00
1859.19,878.00
1860.83,900.00
1862.47,858.00
1864.12,890.00
1865.76,890.00
1867.40,847.00
1869.03,858.00
1870.67,879.00
1872.31,868.00
1873.94,869.00
1875.57,858.00
1877.21,868.00
1878.84,868.00
1880.47,741.00
1882.10,762.00
1883.73,805.00
1885.35,826.00
1886.98,858.00
1888.61,763.00
1890.23,784.00
1891.85,805.00
1893.47,763.00
1895.09,752.00
1896.71,783.00
1898.33,794.00
1899.95,826.00
1901.57,837.00
1903.18,858.00
1904.80,815.00
1906.41,826.00
1908.02,879.00
1909.63,826.00
1911.24,795.00
1912.85,794.00
1914.46,751.00
1916.07,741.00
1917.67,794.00
1919.28,762.00
1920.88,741.00
1922.48,720.00
1924.08,709.00
1925.68,741.00
1927.28,730.00
1928.88,763.00
1930.48,826.00
1932.07,783.00
1933.67,731.00
1935.26,731.00
1936.86,656.00
1938.45,699.00
1940.04,742.00
1941.63,773.00
1943.22,752.00
1944.80,763.00
1946.39,720.00
1947.98,667.00
1949.56,698.00
1951.14,730.00
1952.73,720.00
1954.31,763.00
1955.89,720.00
1957.47,699.00
1959.05,731.00
1960.62,742.00
1962.20,678.00
1963.77,614.00
1965.35,688.00
1966.92,783.00
1968.49,762.00
1970.06,699.00
1971.63,635.00
1973.20,656.00
1974.77,710.00
1976.34,699.00
1977.90,646.00
1979.47,625.00
1981.03,657.00
1982.59,688.00
1984.15,699.00
1985.71,709.00
1987.27,720.00
1988.83,720.00
1990.39,699.00
1991.94,656.00
1993.50,614.00
1995.05,551.00
1996.61,614.00
1998.16,688.00
1999.71,656.00
2001.26,656.00
2002.81,678.00
2004.36,646.00
2005.91,635.00
2007.45,657.00
2009.00,657.00
2010.54,678.00
2012.08,678.00
2013.62,668.00
2015.17,656.00
2016.71,678.00
2018.24,677.00
2019.78,677.00
2021.32,678.00
2022.85,656.00
2024.39,678.00
2025.92,635.00
2027.46,593.00
2028.99,646.00
2030.52,625.00
2032.05,646.00
2033.58,614.00
2035.10,604.00
2036.63,635.00
2038.16,646.00
2039.68,636.00
2041.21,614.00
2042.73,635.00
2044.25,699.00
2045.77,688.00
2047.29,625.00
2048.81,657.00
2050.33,593.00
2051.84,572.00
2053.36,572.00
2054.87,572.00
2056.39,561.00
2057.90,561.00
2059.41,561.00
2060.92,614.00
2062.43,646.00
2063.94,625.00
2065.45,572.00
2066.95,572.00
2068.46,593.00
2069.96,593.00
2071.47,593.00
2072.97,583.00
2074.47,561.00
2075.97,614.00
2077.47,572.00
2078.97,572.00
2080.47,583.00
2081.96,572.00
2083.46,540.00
2084.95,561.00
2086.45,540.00
2087.94,540.00
2089.43,540.00
2090.92,550.00
2092.41,540.00
2093.90,529.00
2095.39,593.00
2096.88,541.00
2098.36,541.00
2099.85,571.00
2101.33,572.00
2102.81,508.00
2104.30,477.00
2105.78,487.00
2107.26,497.00
2108.74,487.00
2110.21,487.00
2111.69,498.00
2113.17,487.00
2114.64,509.00
2116.12,529.00
2117.59,540.00
2119.06,551.00
2120.53,509.00
2122.00,477.00
2123.47,466.00
2124.94,455.00
2126.41,466.00
2127.87,508.00
2129.34,508.00
2130.80,487.00
2132.27,551.00
2133.73,540.00
2135.19,477.00
2136.65,456.00
2138.11,509.00
2139.57,508.00
2141.03,487.00
2142.48,487.00
2143.94,466.00
2145.39,519.00
2146.85,456.00
2148.30,455.00
2149.75,488.00
2151.20,519.00
2152.65,487.00
2154.10,540.00
2155.55,529.00
2157.00,550.00
2158.44,540.00
2159.89,509.00
2161.33,423.00
2162.78,445.00
2164.22,530.00
2165.66,551.00
2167.10,497.00
2168.54,497.00
2169.98,509.00
2171.42,498.00
2172.85,424.00
2174.29,487.00
2175.72,488.00
2177.16,444.00
2178.59,508.00
2180.02,476.00
2181.45,423.00
2182.88,424.00
2184.31,487.00
2185.74,477.00
2187.17,455.00
2188.59,497.00
2190.02,487.00
2191.44,498.00
2192.87,476.00
2194.29,487.00
2195.71,498.00
2197.13,477.00
2198.55,413.00
2199.97,424.00
2201.39,488.00
2202.81,488.00
2204.22,497.00
2205.64,476.00
2207.05,402.00
2208.46,476.00
2209.88,466.00
2211.29,444.00
2212.70,477.00
2214.11,456.00
2215.52,434.00
2216.92,477.00
2218.33,508.00
2219.74,445.00
2221.14,413.00
2222.54,445.00
2223.95,434.00
2225.35,434.00
2226.75,434.00
2228.15,402.00
2229.55,413.00
2230.95,339.00
2232.35,350.00
2233.74,424.00
2235.14,445.00
2236.53,413.00
2237.93,413.00
2239.32,350.00
2240.71,328.00
2242.10,360.00
2243.49,370.00
2244.88,392.00
2246.27,413.00
2247.66,413.00
2249.04,413.00
2250.43,371.00
2251.81,392.00
2253.20,424.00
2254.58,434.00
2255.96,424.00
2257.34,403.00
2258.72,445.00
2260.10,402.00
2261.48,360.00
2262.86,339.00
2264.23,392.00
2265.61,391.00
2266.98,392.00
2268.36,413.00
2269.73,392.00
2271.10,328.00
2272.47,360.00
2273.84,381.00
2275.21,381.00
2276.58,402.00
2277.95,413.00
2279.31,392.00
2280.68,402.00
2282.05,424.00
2283.41,434.00
2284.77,423.00
2286.13,423.00
2287.50,402.00
2288.86,423.00
2290.22,403.00
2291.57,392.00
2292.93,423.00
2294.29,402.00
2295.64,339.00
2297.00,339.00
2298.35,360.00
2299.71,413.00
2301.06,382.00
2302.41,360.00
2303.76,360.00
2305.11,381.00
2306.46,360.00
2307.81,360.00
2309.15,381.00
2310.50,392.00
2311.84,392.00
2313.19,360.00
2314.53,328.00
2315.87,328.00
2317.22,339.00
2318.56,360.00
2319.90,349.00
2321.24,318.00
2322.57,338.00
2323.91,328.00
2325.25,339.00
2326.58,371.00
2327.92,371.00
2329.25,413.00
2330.58,350.00
2331.91,286.00
2333.25,360.00
2334.58,318.00
2335.90,297.00
2337.23,318.00
2338.56,339.00
2339.89,317.00
2341.21,296.00
2342.54,318.00
2343.86,286.00
2345.19,338.00
2346.51,317.00
2347.83,339.00
2349.15,328.00
2350.47,307.00
2351.79,307.00
2353.11,317.00
2354.42,339.00
2355.74,339.00
2357.06,286.00
2358.37,276.00
2359.68,318.00
2361.00,307.00
2362.31,307.00
2363.62,307.00
2364.93,307.00
2366.24,286.00
2367.55,297.00
2368.86,254.00
2370.16,276.00
2371.47,338.00
2372.77,328.00
2374.08,318.00
2375.38,318.00
2376.68,275.00
2377.98,307.00
2379.29,276.00
2380.59,254.00
2381.88,222.00
2383.18,265.00
2384.48,339.00
2385.78,328.00
2387.07,286.00
2388.37,286.00
2389.66,296.00
2390.95,264.00
2392.25,275.00
2393.54,360.00
2394.83,296.00
2396.12,307.00
2397.41,265.00
2398.70,212.00
2399.98,243.00
2401.27,254.00
2402.55,296.00
2403.84,265.00
2405.12,243.00
2406.41,296.00
2407.69,275.00
2408.97,265.00
2410.25,307.00
2411.53,286.00
2412.81,297.00
2414.09,276.00
2415.36,254.00
2416.64,243.00
2417.91,297.00
2419.19,307.00
2420.46,317.00
2421.74,265.00
2423.01,297.00
2424.28,360.00
2425.55,328.00
2426.82,318.00
2428.09,275.00
2429.36,243.00
2430.62,275.00
2431.89,318.00
2433.15,317.00
2434.42,297.00
2435.68,244.00
2436.94,244.00
2438.21,254.00
2439.47,233.00
2440.73,254.00
2441.99,254.00
2443.25,169.00
2444.51,169.00
2445.76,202.00
2447.02,265.00
2448.27,254.00
2449.53,275.00
2450.78,254.00
2452.03,254.00
2453.29,254.00
2454.54,254.00
2455.79,265.00
2457.04,307.00
2458.29,296.00
2459.54,296.00
2460.78,264.00
2462.03,254.00
2463.27,265.00
2464.52,244.00
2465.76,243.00
2467.01,275.00
2468.25,265.00
2469.49,212.00
2470.73,265.00
2471.97,275.00
2473.21,243.00
2474.45,243.00
2475.69,275.00
2476.92,296.00
2478.16,254.00
2479.39,243.00
2480.63,254.00
2481.86,255.00
2483.09,254.00
2484.32,254.00
2485.56,201.00
2486.79,233.00
2488.02,233.00
2489.24,212.00
2490.47,233.00
2491.70,222.00
2492.92,243.00
2494.15,222.00
2495.37,254.00
2496.60,275.00
2497.82,265.00
2499.04,233.00
2500.26,254.00
2501.48,254.00
2502.70,222.00
2503.92,201.00
2505.14,244.00
2506.36,232.00
2507.58,201.00
2508.79,169.00
2510.01,223.00
2511.22,202.00
2512.43,169.00
2513.64,190.00
2514.86,201.00
2516.07,254.00
2517.28,211.00
2518.49,169.00
2519.70,233.00
2520.90,191.00
2522.11,222.00
2523.32,275.00
2524.52,243.00
2525.73,243.00
2526.93,254.00
2528.13,244.00
2529.33,222.00
2530.54,265.00
2531.74,233.00
2532.94,190.00
2534.14,149.00
2535.33,159.00
2536.53,190.00
2537.73,222.00
2538.92,148.00
2540.12,127.00
2541.31,149.00
2542.51,254.00
2543.70,233.00
2544.89,191.00
2546.08,254.00
2547.27,233.00
2548.46,201.00
2549.65,170.00
2550.84,180.00
2552.03,180.00
2553.21,180.00
2554.40,212.00
2555.58,180.00
2556.77,191.00
2557.95,191.00
2559.13,212.00
2560.31,191.00
2561.50,170.00
2562.68,222.00
2563.85,233.00
2565.03,233.00
2566.21,201.00
2567.39,180.00
2568.56,148.00
2569.74,137.00
2570.91,169.00
2572.09,211.00
2573.26,211.00
2574.43,127.00
2575.61,201.00
2576.78,223.00
2577.95,138.00
2579.12,170.00
2580.29,222.00
2581.45,201.00
2582.62,180.00
2583.79,201.00
2584.95,201.00
2586.12,201.00
2587.28,180.00
2588.44,169.00
2589.61,180.00
2590.77,170.00
2591.93,158.00
2593.09,201.00
2594.25,212.00
2595.41,170.00
2596.56,190.00
2597.72,169.00
2598.88,180.00
2600.03,169.00
2601.19,180.00
2602.34,211.00
2603.50,233.00
2604.65,201.00
2605.80,170.00
2606.95,233.00
2608.10,180.00
2609.25,148.00
2610.40,137.00
2611.55,116.00
2612.70,212.00
2613.84,201.00
2614.99,169.00
2616.13,148.00
2617.28,180.00
2618.42,202.00
2619.56,169.00
2620.71,148.00
2621.85,159.00
2622.99,180.00
2624.13,170.00
2625.27,190.00
2626.40,159.00
2627.54,169.00
2628.68,148.00
2629.81,170.00
2630.95,116.00
2632.08,137.00
2633.22,158.00
2634.35,127.00
2635.48,159.00
2636.61,211.00
2637.74,148.00
2638.87,137.00
2640.00,190.00
2641.13,169.00
2642.26,138.00
2643.39,127.00
2644.51,148.00
2645.64,191.00
2646.76,212.00
2647.89,211.00
2649.01,169.00
2650.13,191.00
2651.25,180.00
2652.38,127.00
2653.50,137.00
2654.62,191.00
2655.73,190.00
2656.85,116.00
2657.97,106.00
2659.09,170.00
2660.20,170.00
2661.32,148.00
2662.43,127.00
2663.55,127.00
2664.66,148.00
2665.77,127.00
2666.88,127.00
2667.99,159.00
2669.10,148.00
2670.21,170.00
2671.32,158.00
2672.43,158.00
2673.54,170.00
2674.64,159.00
2675.75,169.00
2676.85,148.00
2677.96,96.00
2679.06,116.00
2680.16,116.00
2681.26,148.00
2682.37,116.00
2683.47,74.00
2684.57,85.00
2685.66,180.00
2686.76,201.00
2687.86,159.00
2688.96,138.00
2690.05,159.00
2691.15,169.00
2692.24,117.00
2693.34,106.00
2694.43,105.00
2695.52,85.00
2696.62,148.00
2697.71,138.00
2698.80,170.00
2699.89,116.00
2700.98,170.00
2702.06,190.00
2703.15,117.00
2704.24,85.00
2705.32,127.00
2706.41,180.00
2707.49,169.00
2708.58,138.00
2709.66,127.00
2710.74,169.00
2711.83,159.00
2712.91,127.00
2713.99,127.00
2715.07,117.00
2716.15,127.00
2717.22,127.00
2718.30,127.00
2719.38,127.00
2720.45,127.00
2721.53,127.00
2722.60,116.00
2723.68,106.00
2724.75,95.00
2725.82,84.00
2726.89,127.00
2727.97,137.00
2729.04,127.00
2730.11,148.00
2731.17,127.00
2732.24,127.00
2733.31,85.00
2734.38,137.00
2735.44,137.00
2736.51,148.00
2737.57,116.00
2738.64,95.00
2739.70,138.00
2740.76,170.00
2741.82,190.00
2742.89,148.00
2743.95,159.00
2745.01,117.00
2746.07,96.00
2747.12,84.00
2748.18,74.00
2749.24,53.00
2750.29,85.00
2751.35,105.00
2752.40,127.00
2753.46,95.00
2754.51,138.00
2755.57,106.00
2756.62,106.00
2757.67,127.00
2758.72,127.00
2759.77,84.00
2760.82,138.00
2761.87,106.00
2762.91,117.00
2763.96,95.00
2765.01,85.00
2766.05,106.00
2767.10,137.00
2768.14,127.00
2769.19,137.00
2770.23,169.00
2771.27,149.00
2772.31,149.00
2773.35,74.00
2774.40,128.00
2775.43,148.00
2776.47,117.00
2777.51,95.00
2778.55,127.00
2779.59,127.00
2780.62,137.00
2781.66,117.00
2782.69,138.00
2783.73,95.00
2784.76,95.00
2785.79,84.00
2786.82,42.00
2787.85,63.00
2788.89,84.00
2789.92,84.00
2790.94,95.00
2791.97,137.00
2793.00,106.00
2794.03,74.00
2795.05,106.00
2796.08,169.00
2797.11,127.00
2798.13,127.00
2799.15,116.00
2800.18,85.00
2801.20,63.00
2802.22,84.00
2803.24,106.00
2804.26,84.00
2805.28,85.00
2806.30,106.00
2807.32,117.00
2808.34,42.00
2809.35,105.00
2810.37,85.00
2811.39,52.00
2812.40,43.00
2813.41,85.00
2814.43,63.00
2815.44,85.00
2816.45,85.00
2817.46,85.00
2818.48,64.00
2819.49,74.00
2820.49,84.00
2821.50,53.00
2822.51,95.00
2823.52,85.00
2824.53,84.00
2825.53,158.00
2826.54,74.00
2827.54,64.00
2828.55,106.00
2829.55,106.00
2830.55,106.00
2831.55,106.00
2832.56,137.00
2833.56,159.00
2834.56,74.00
2835.56,85.00
2836.56,85.00
2837.55,106.00
2838.55,127.00
2839.55,138.00
2840.54,116.00
2841.54,149.00
2842.53,106.00
2843.53,74.00
2844.52,74.00
2845.51,75.00
2846.51,52.00
2847.50,63.00
2848.49,96.00
2849.48,117.00
2850.47,64.00
2851.46,96.00
2852.45,116.00
2853.43,127.00
2854.42,128.00
2855.41,106.00
2856.39,63.00
2857.38,85.00
2858.36,84.00
2859.34,85.00
2860.33,159.00
2861.31,159.00
2862.29,53.00
2863.27,106.00
2864.25,96.00
2865.23,127.00
2866.21,127.00
2867.19,63.00
2868.17,63.00
2869.14,43.00
2870.12,84.00
2871.09,127.00
2872.07,96.00
2873.04,95.00
2874.02,85.00
2874.99,64.00
2875.96,96.00
2876.93,84.00
2877.91,64.00
2878.88,42.00
2879.85,42.00
2880.82,96.00
2881.78,74.00
2882.75,21.00
2883.72,53.00
2884.69,32.00
2885.65,53.00
2886.62,85.00
2887.58,43.00
2888.55,63.00
2889.51,85.00
2890.47,74.00
2891.43,105.00
2892.39,85.00
2893.36,117.00
2894.31,116.00
2895.27,74.00
2896.23,105.00
2897.19,96.00
2898.15,116.00
2899.11,138.00
2900.06,127.00
2901.02,138.00
2901.97,64.00
2902.93,64.00
2903.88,74.00
2904.83,106.00
2905.79,95.00
2906.74,84.00
2907.69,63.00
2908.64,21.00
2909.59,10.00
2910.54,43.00
2911.49,106.00
2912.43,84.00
2913.38,85.00
2914.33,85.00
2915.27,84.00
2916.22,84.00
2917.16,64.00
2918.11,53.00
2919.05,84.00
2919.99,117.00
2920.94,117.00
2921.88,63.00
2922.82,21.00
2923.76,11.00
2924.70,21.00
2925.64,85.00
2926.58,85.00
2927.51,127.00
2928.45,53.00
2929.39,32.00
2930.32,64.00
2931.26,64.00
2932.19,64.00
2933.13,52.00
2934.06,84.00
2934.99,63.00
2935.92,85.00
2936.86,42.00
2937.79,63.00
2938.72,74.00
2939.65,74.00
2940.57,32.00
2941.50,42.00
2942.43,85.00
2943.36,96.00
2944.28,63.00
2945.21,42.00
2946.13,32.00
2947.06,42.00
2947.98,42.00
2948.91,21.00
2949.83,21.00
2950.75,32.00
2951.67,63.00
2952.59,53.00
2953.51,63.00
2954.43,95.00
2955.35,63.00
2956.27,53.00
2957.19,85.00
2958.10,106.00
2959.02,117.00
2959.94,96.00
2960.85,117.00
2961.77,127.00
2962.68,137.00
2963.59,64.00
2964.51,0.00
2965.42,52.00
2966.33,85.00
2967.24,96.00
2968.15,63.00
2969.06,11.00
2969.97,-31.00
2970.88,21.00
2971.78,43.00
2972.69,53.00
2973.60,85.00
2974.50,85.00
2975.41,116.00
2976.31,127.00
2977.22,95.00
2978.12,116.00
2979.02,64.00
2979.93,0.00
2980.83,-43.00
2981.73,0.00
2982.63,63.00
2983.53,95.00
2984.43,74.00
2985.33,21.00
2986.22,52.00
2987.12,85.00
2988.02,32.00
2988.91,42.00
2989.81,85.00
2990.70,106.00
2991.60,42.00
2992.49,32.00
2993.38,10.00
2994.28,53.00
2995.17,42.00
2996.06,42.00
2996.95,53.00
2997.84,32.00
2998.73,42.00
2999.62,64.00
3000.51,53.00
3001.40,127.00
3002.28,117.00
3003.17,53.00
3004.05,31.00
3004.94,32.00
3005.82,63.00
3006.71,127.00
3007.59,106.00
3008.47,84.00
3009.36,74.00
3010.24,0.00
3011.12,21.00
3012.00,53.00
3012.88,85.00
3013.76,74.00
3014.64,63.00
3015.51,63.00
3016.39,117.00
3017.27,127.00
3018.14,42.00
3019.02,53.00
3019.89,84.00
3020.77,84.00
3021.64,64.00
3022.52,63.00
3023.39,53.00
3024.26,0.00
3025.13,53.00
3026.00,32.00
3026.87,74.00
3027.74,106.00
3028.61,84.00
3029.48,64.00
3030.35,53.00
3031.21,53.00
3032.08,85.00
3032.95,42.00
3033.81,53.00
3034.68,21.00
3035.54,52.00
3036.40,63.00
3037.27,85.00
3038.13,21.00
3038.99,63.00
3039.85,0.00
3040.71,74.00
3041.57,53.00
3042.43,0.00
3043.29,42.00
3044.15,32.00
3045.01,21.00
3045.86,21.00
3046.72,53.00
3047.58,43.00
3048.43,43.00
3049.29,42.00
3050.14,64.00
3050.99,53.00
3051.85,32.00
3052.70,32.00
3053.55,32.00
3054.40,-21.00
3055.25,21.00
3056.10,106.00
3056.95,106.00
3057.80,42.00
3058.65,21.00
3059.50,74.00
3060.34,53.00
3061.19,64.00
3062.04,75.00
3062.88,10.00
3063.73,32.00
3064.57,84.00
3065.42,21.00
3066.26,21.00
3067.10,75.00
3067.94,64.00
3068.78,74.00
3069.63,43.00
3070.47,75.00
3071.31,85.00
3072.14,74.00
3072.98,64.00
3073.82,64.00
3074.66,85.00
3075.49,53.00
3076.33,53.00
3077.17,63.00
3078.00,43.00
3078.83,42.00
3079.67,74.00
3080.50,74.00
3081.33,63.00
3082.17,11.00
3083.00,10.00
3083.83,32.00
3084.66,-21.00
3085.49,32.00
3086.32,42.00
3087.15,43.00
3087.97,43.00
3088.80,-21.00
3089.63,-11.00
3090.46,74.00
3091.28,64.00
3092.11,85.00
3092.93,43.00
3093.75,63.00
3094.58,43.00
3095.40,-10.00
3096.22,53.00
3097.05,85.00
3097.87,32.00
3098.69,32.00
3099.51,32.00
3100.33,21.00
3101.15,0.00
3101.96,-53.00
3102.78,-42.00
3103.60,22.00
3104.42,53.00
3105.23,85.00
3106.05,64.00
3106.86,84.00
3107.68,53.00
3108.49,21.00
3109.30,31.00
3110.12,84.00
3110.93,85.00
3111.74,95.00
3112.55,43.00
3113.36,0.00
3114.17,10.00
3114.98,21.00
3115.79,0.00
3116.60,21.00
3117.40,64.00
3118.21,63.00
3119.02,84.00
3119.82,106.00
3120.63,22.00
3121.43,0.00
3122.24,32.00
3123.04,53.00
3123.84,11.00
3124.65,11.00
3125.45,21.00
3126.25,43.00
3127.05,53.00
3127.85,0.00
3128.65,42.00
3129.45,64.00
3130.25,42.00
3131.05,21.00
3131.84,21.00
3132.64,11.00
3133.44,-31.00
3134.23,-11.00
3135.03,0.00
3135.82,10.00
3136.62,10.00
3137.41,11.00
3138.20,84.00
3139.00,75.00
3139.79,11.00
3140.58,43.00
3141.37,63.00
3142.16,0.00
3142.95,31.00
3143.74,64.00
3144.53,21.00
3145.32,53.00
3146.10,-21.00
3146.89,53.00
3147.68,74.00
3148.46,74.00
3149.25,21.00
3150.03,0.00
3150.82,74.00
3151.60,85.00
3152.38,64.00
3153.17,0.00
3153.95,-21.00
3154.73,-21.00
3155.51,21.00
3156.29,-21.00
3157.07,-53.00
3157.85,0.00
3158.63,21.00
3159.41,0.00
3160.18,0.00
3160.96,31.00
3161.74,64.00
3162.51,43.00
3163.29,64.00
3164.06,32.00
3164.84,21.00
3165.61,21.00
3166.38,10.00
3167.16,11.00
3167.93,-11.00
3168.70,11.00
3169.47,21.00
3170.24,31.00
3171.01,64.00
3171.78,53.00
3172.55,11.00
3173.32,11.00
3174.09,21.00
3174.85,43.00
3175.62,52.00
3176.39,21.00
3177.15,53.00
3177.92,31.00
3178.68,22.00
3179.45,-10.00
3180.21,-31.00
3180.97,-21.00
3181.73,-21.00
3182.50,10.00
3183.26,42.00
3184.02,21.00
3184.78,63.00
3185.54,32.00
3186.30,21.00
3187.05,42.00
3187.81,43.00
3188.57,21.00
3189.33,0.00
3190.08,21.00
3190.84,53.00
3191.59,42.00
3192.35,42.00
3193.10,64.00
3193.86,32.00
3194.61,0.00
3195.36,-22.00
3196.12,21.00
3196.87,32.00
3197.62,64.00
3198.37,-11.00
3199.12,21.00
3199.87,64.00
3200.62,85.00
3201.36,32.00
3202.11,0.00
3202.86,32.00
3203.61,22.00
3204.35,22.00
3205.10,11.00
3205.84,31.00
3206.59,0.00
3207.33,-43.00
3208.08,-11.00
3208.82,-11.00
3209.56,-11.00
3210.30,22.00
3211.05,32.00
3211.79,10.00
3212.53,32.00
3213.27,74.00
3214.01,85.00
3214.75,21.00
3215.48,22.00
3216.22,0.00
3216.96,-11.00
3217.69,21.00
3218.43,32.00
3219.17,53.00
3219.90,53.00
3220.64,53.00
3221.37,42.00
3222.10,43.00
3222.84,43.00
3223.57,22.00
3224.30,53.00
3225.03,32.00
3225.76,42.00
3226.49,-10.00
3227.22,-21.00
3227.95,0.00
3228.68,-11.00
3229.41,-21.00
3230.14,32.00
3230.87,10.00
3231.59,0.00
3232.32,0.00
3233.04,-11.00
3233.77,21.00
3234.49,43.00
3235.22,43.00
3235.94,31.00
3236.66,117.00
3237.39,64.00
3238.11,0.00
3238.83,21.00
3239.55,-42.00
3240.27,-32.00
3240.99,0.00
3241.71,64.00
3242.43,42.00
3243.15,43.00
3243.87,0.00
3244.58,11.00
3245.30,11.00
3246.02,31.00
3246.73,0.00
3247.45,0.00
3248.16,0.00
3248.88,32.00
3249.59,-10.00
3250.30,-21.00
3251.01,-22.00
3251.73,-32.00
3252.44,21.00
3253.15,74.00
3253.86,84.00
3254.57,53.00
3255.28,0.00
3255.99,42.00
3256.70,74.00
3257.41,32.00
3258.11,32.00
3258.82,42.00
3259.53,42.00
3260.23,21.00
3260.94,74.00
3261.64,32.00
3262.35,21.00
3263.05,32.00
3263.76,32.00
3264.46,53.00
3265.16,11.00
3265.86,-43.00
3266.56,22.00
3267.26,-22.00
3267.97,-64.00
3268.67,-42.00
3269.36,22.00
3270.06,-11.00
3270.76,-64.00
3271.46,-21.00
3272.16,-22.00
3272.85,0.00
