RamanShift,Intensity
180.91,249.00
183.74,296.00
186.56,413.00
189.39,572.00
192.21,805.00
195.03,1144.00
197.84,1609.00
200.66,2181.00
203.47,2869.00
206.28,3568.00
209.09,4214.00
211.89,4681.00
214.70,5146.00
217.50,5549.00
220.30,5750.00
223.10,5962.00
225.89,6057.00
228.69,6163.00
231.48,6258.00
234.27,6269.00
237.05,6417.00
239.84,6428.00
242.62,6258.00
245.40,6088.00
248.18,6110.00
250.96,6035.00
253.73,5888.00
256.51,5855.00
259.28,5749.00
262.05,5623.00
264.81,5601.00
267.58,5495.00
270.34,5400.00
273.10,5369.00
275.86,5306.00
278.61,5263.00
281.37,5284.00
284.12,5295.00
286.87,5242.00
289.62,5168.00
292.36,5200.00
295.11,5220.00
297.85,5210.00
300.59,5263.00
303.33,5241.00
306.06,5242.00
308.80,5242.00
311.53,5284.00
314.26,5358.00
316.99,5369.00
319.71,5200.00
322.44,5157.00
325.16,5274.00
327.88,5294.00
330.59,5210.00
333.31,5210.00
336.02,5231.00
338.73,5167.00
341.44,5220.00
344.15,5210.00
346.86,5019.00
349.56,5114.00
352.26,5168.00
354.96,5062.00
357.66,5093.00
360.35,5093.00
363.05,5136.00
365.74,5157.00
368.43,5167.00
371.12,5294.00
373.80,5284.00
376.48,5347.00
379.17,5347.00
381.85,5294.00
384.52,5316.00
387.20,5390.00
389.87,5327.00
392.54,5327.00
395.21,5390.00
397.88,5358.00
400.55,5316.00
403.21,5348.00
405.87,5422.00
408.53,5337.00
411.19,5327.00
413.84,5294.00
416.50,5305.00
419.15,5305.00
421.80,5263.00
424.45,5146.00
427.10,5210.00
429.74,5231.00
432.38,5146.00
435.02,5073.00
437.66,5147.00
440.30,5263.00
442.93,5316.00
445.56,5263.00
448.19,5221.00
450.82,5252.00
453.45,5327.00
456.07,5263.00
458.70,5157.00
461.32,5135.00
463.94,5125.00
466.55,5294.00
469.17,5369.00
471.78,5347.00
474.39,5295.00
477.00,5242.00
479.61,5252.00
482.22,5200.00
484.82,5167.00
487.42,5188.00
490.02,5156.00
492.62,5189.00
495.21,5242.00
497.81,5210.00
500.40,5199.00
502.99,5220.00
505.58,5178.00
508.17,5209.00
510.75,5231.00
513.33,5210.00
515.91,5178.00
518.49,5082.00
521.07,4903.00
523.65,4924.00
526.22,5083.00
528.79,5114.00
531.36,5072.00
533.93,5051.00
536.49,5093.00
539.06,5051.00
541.62,5072.00
544.18,5072.00
546.74,5062.00
549.30,5146.00
551.85,5072.00
554.40,5009.00
556.95,4987.00
559.50,4966.00
562.05,4924.00
564.59,4934.00
567.14,4892.00
569.68,4924.00
572.22,4935.00
574.76,4924.00
577.29,4882.00
579.83,4850.00
582.36,4733.00
584.89,4744.00
587.42,4786.00
589.95,4828.00
592.47,4797.00
594.99,4797.00
597.52,4850.00
600.04,4797.00
602.55,4755.00
605.07,4733.00
607.58,4713.00
610.09,4680.00
612.60,4670.00
615.11,4648.00
617.62,4702.00
620.12,4669.00
622.63,4670.00
625.13,4680.00
627.63,4702.00
630.13,4616.00
632.62,4564.00
635.12,4532.00
637.61,4500.00
640.10,4480.00
642.59,4437.00
645.07,4416.00
647.56,4458.00
650.04,4468.00
652.52,4500.00
655.00,4489.00
657.48,4437.00
659.96,4469.00
662.43,4437.00
664.90,4395.00
667.37,4394.00
669.84,4458.00
672.31,4415.00
674.78,4384.00
677.24,4373.00
679.70,4384.00
682.16,4352.00
684.62,4395.00
687.08,4373.00
689.53,4321.00
691.98,4342.00
694.43,4320.00
696.88,4342.00
699.33,4278.00
701.78,4214.00
704.22,4278.00
706.66,4236.00
709.10,4172.00
711.54,4236.00
713.98,4289.00
716.42,4225.00
718.85,4193.00
721.28,4278.00
723.71,4362.00
726.14,4458.00
728.57,4490.00
730.99,4554.00
733.41,4564.00
735.83,4426.00
738.25,4394.00
740.67,4310.00
743.09,4204.00
745.50,4130.00
747.91,4013.00
750.33,3982.00
752.73,4013.00
755.14,3949.00
757.55,3929.00
759.95,3918.00
762.35,3897.00
764.75,3886.00
767.15,3928.00
769.55,3886.00
771.95,3887.00
774.34,3939.00
776.73,3982.00
779.12,3929.00
781.51,3971.00
783.90,3992.00
786.28,3918.00
788.67,3876.00
791.05,3865.00
793.43,3822.00
795.80,3738.00
798.18,3759.00
800.56,3717.00
802.93,3738.00
805.30,3769.00
807.67,3769.00
810.04,3812.00
812.40,3822.00
814.77,3802.00
817.13,3728.00
819.49,3633.00
821.85,3632.00
824.21,3632.00
826.57,3632.00
828.92,3621.00
831.27,3611.00
833.63,3653.00
835.98,3590.00
838.32,3548.00
840.67,3579.00
843.01,3505.00
845.36,3473.00
847.70,3537.00
850.04,3505.00
852.37,3526.00
854.71,3505.00
857.05,3473.00
859.38,3505.00
861.71,3463.00
864.04,3410.00
866.37,3442.00
868.69,3463.00
871.02,3420.00
873.34,3410.00
875.66,3400.00
877.98,3463.00
880.30,3452.00
882.62,3474.00
884.93,3431.00
887.24,3325.00
889.55,3314.00
891.86,3304.00
894.17,3325.00
896.48,3325.00
898.78,3325.00
901.09,3241.00
903.39,3209.00
905.69,3155.00
907.99,3304.00
910.28,3400.00
912.58,3325.00
914.87,3251.00
917.16,3251.00
919.45,3251.00
921.74,3272.00
924.03,3272.00
926.31,3314.00
928.60,3261.00
930.88,3208.00
933.16,3188.00
935.44,3145.00
937.72,3134.00
939.99,3145.00
942.26,3155.00
944.54,3230.00
946.81,3230.00
949.08,3155.00
951.34,3092.00
953.61,3040.00
955.87,3124.00
958.14,3134.00
960.40,3145.00
962.66,3188.00
964.92,3114.00
967.17,3018.00
969.43,2997.00
971.68,3029.00
973.93,2965.00
976.18,2996.00
978.43,2997.00
980.68,2902.00
982.92,2955.00
985.17,3103.00
987.41,3018.00
989.65,2891.00
991.89,2870.00
994.12,2912.00
996.36,2912.00
998.59,2881.00
1000.83,2901.00
1003.06,2944.00
1005.29,2891.00
1007.51,2816.00
1009.74,2828.00
1011.97,2881.00
1014.19,2901.00
1016.41,2859.00
1018.63,2859.00
1020.85,2859.00
1023.07,2838.00
1025.28,2912.00
1027.49,2902.00
1029.71,2870.00
1031.92,2838.00
1034.13,2753.00
1036.33,2817.00
1038.54,2838.00
1040.74,2891.00
1042.95,2828.00
1045.15,2806.00
1047.35,2838.00
1049.55,2817.00
1051.74,2806.00
1053.94,2743.00
1056.13,2721.00
1058.32,2626.00
1060.51,2658.00
1062.70,2679.00
1064.89,2669.00
1067.08,2668.00
1069.26,2679.00
1071.44,2648.00
1073.63,2743.00
1075.81,2732.00
1077.98,2732.00
1080.16,2754.00
1082.34,2679.00
1084.51,2658.00
1086.68,2626.00
1088.85,2563.00
1091.02,2584.00
1093.19,2563.00
1095.35,2552.00
1097.52,2552.00
1099.68,2584.00
1101.84,2595.00
1104.00,2605.00
1106.16,2605.00
1108.32,2616.00
1110.48,2616.00
1112.63,2594.00
1114.78,2563.00
1116.93,2552.00
1119.08,2605.00
1121.23,2584.00
1123.38,2605.00
1125.52,2563.00
1127.67,2520.00
1129.81,2499.00
1131.95,2489.00
1134.09,2447.00
1136.22,2457.00
1138.36,2456.00
1140.50,2372.00
1142.63,2340.00
1144.76,2330.00
1146.89,2383.00
1149.02,2478.00
1151.15,2520.00
1153.27,2467.00
1155.40,2467.00
1157.52,2446.00
1159.64,2404.00
1161.76,2436.00
1163.88,2447.00
1165.99,2457.00
1168.11,2329.00
1170.22,2288.00
1172.34,2372.00
1174.45,2329.00
1176.56,2287.00
1178.66,2340.00
1180.77,2404.00
1182.88,2415.00
1184.98,2414.00
1187.08,2382.00
1189.18,2309.00
1191.28,2297.00
1193.38,2298.00
1195.47,2330.00
1197.57,2372.00
1199.66,2319.00
1201.75,2287.00
1203.85,2330.00
1205.93,2245.00
1208.02,2244.00
1210.11,2340.00
1212.19,2288.00
1214.28,2298.00
1216.36,2361.00
1218.44,2340.00
1220.52,2319.00
1222.59,2340.00
1224.67,2266.00
1226.74,2192.00
1228.82,2287.00
1230.89,2404.00
1232.96,2330.00
1235.03,2245.00
1237.10,2255.00
1239.16,2203.00
1241.23,2203.00
1243.29,2235.00
1245.35,2234.00
1247.41,2288.00
1249.47,2224.00
1251.53,2149.00
1253.58,2118.00
1255.64,2192.00
1257.69,2234.00
1259.74,2224.00
1261.79,2182.00
1263.84,2149.00
1265.89,2118.00
1267.93,2107.00
1269.98,2086.00
1272.02,2065.00
1274.06,2160.00
1276.10,2128.00
1278.14,2213.00
1280.18,2192.00
1282.22,2149.00
1284.25,2160.00
1286.28,2065.00
1288.32,2065.00
1290.35,2023.00
1292.38,2001.00
1294.40,2064.00
1296.43,2065.00
1298.46,2107.00
1300.48,2097.00
1302.50,2033.00
1304.52,2044.00
1306.54,2118.00
1308.56,2086.00
1310.58,2075.00
1312.59,2097.00
1314.60,2129.00
1316.62,2149.00
1318.63,2107.00
1320.64,2202.00
1322.65,2266.00
1324.65,2266.00
1326.66,2266.00
1328.66,2139.00
1330.66,2129.00
1332.67,2223.00
1334.67,2245.00
1336.66,2149.00
1338.66,2096.00
1340.66,2086.00
1342.65,2064.00
1344.65,2033.00
1346.64,2022.00
1348.63,2022.00
1350.62,1970.00
1352.60,1980.00
1354.59,2023.00
1356.57,2012.00
1358.56,2022.00
1360.54,1991.00
1362.52,1990.00
1364.50,1969.00
1366.48,1916.00
1368.46,1980.00
1370.43,2012.00
1372.41,1959.00
1374.38,1990.00
1376.35,2054.00
1378.32,2001.00
1380.29,1927.00
1382.25,1831.00
1384.22,1800.00
1386.18,1831.00
1388.15,1842.00
1390.11,1874.00
1392.07,1990.00
1394.03,1885.00
1395.99,1842.00
1397.94,1864.00
1399.90,1842.00
1401.85,1863.00
1403.80,1874.00
1405.76,1927.00
1407.71,1864.00
1409.65,1842.00
1411.60,1864.00
1413.55,1821.00
1415.49,1737.00
1417.44,1758.00
1419.38,1832.00
1421.32,1885.00
1423.26,1821.00
1425.19,1769.00
1427.13,1790.00
1429.07,1779.00
1431.00,1779.00
1432.93,1768.00
1434.86,1757.00
1436.79,1716.00
1438.72,1694.00
1440.65,1779.00
1442.57,1747.00
1444.50,1705.00
1446.42,1694.00
1448.34,1673.00
1450.26,1726.00
1452.18,1726.00
1454.10,1737.00
1456.02,1694.00
1457.93,1747.00
1459.85,1769.00
1461.76,1821.00
1463.67,1715.00
1465.58,1705.00
1467.49,1695.00
1469.40,1673.00
1471.31,1673.00
1473.21,1578.00
1475.11,1567.00
1477.02,1610.00
1478.92,1694.00
1480.82,1716.00
1482.72,1651.00
1484.61,1652.00
1486.51,1705.00
1488.40,1704.00
1490.30,1652.00
1492.19,1609.00
1494.08,1589.00
1495.97,1567.00
1497.86,1567.00
1499.74,1567.00
1501.63,1588.00
1503.51,1610.00
1505.40,1556.00
1507.28,1588.00
1509.16,1630.00
1511.04,1610.00
1512.92,1652.00
1514.79,1694.00
1516.67,1609.00
1518.54,1567.00
1520.42,1588.00
1522.29,1610.00
1524.16,1599.00
1526.03,1599.00
1527.89,1578.00
1529.76,1546.00
1531.63,1568.00
1533.49,1599.00
1535.35,1546.00
1537.21,1546.00
1539.07,1524.00
1540.93,1525.00
1542.79,1514.00
1544.65,1504.00
1546.50,1482.00
1548.36,1503.00
1550.21,1514.00
1552.06,1546.00
1553.91,1504.00
1555.76,1451.00
1557.61,1524.00
1559.45,1567.00
1561.30,1524.00
1563.14,1461.00
1564.98,1409.00
1566.82,1461.00
1568.67,1525.00
1570.50,1493.00
1572.34,1419.00
1574.18,1441.00
1576.01,1419.00
1577.85,1419.00
1579.68,1450.00
1581.51,1440.00
1583.34,1430.00
1585.17,1419.00
1587.00,1419.00
1588.82,1366.00
1590.65,1398.00
1592.47,1397.00
1594.30,1408.00
1596.12,1377.00
1597.94,1419.00
1599.76,1376.00
1601.57,1334.00
1603.39,1366.00
1605.21,1334.00
1607.02,1334.00
1608.83,1345.00
1610.64,1398.00
1612.45,1335.00
1614.26,1292.00
1616.07,1345.00
1617.88,1377.00
1619.68,1376.00
1621.49,1313.00
1623.29,1323.00
1625.09,1281.00
1626.89,1323.00
1628.69,1313.00
1630.49,1313.00
1632.29,1345.00
1634.08,1356.00
1635.88,1355.00
1637.67,1345.00
1639.46,1303.00
1641.25,1281.00
1643.04,1313.00
1644.83,1302.00
1646.62,1239.00
1648.41,1249.00
1650.19,1239.00
1651.97,1229.00
1653.76,1249.00
1655.54,1249.00
1657.32,1218.00
1659.10,1218.00
1660.88,1250.00
1662.65,1271.00
1664.43,1271.00
1666.20,1303.00
1667.97,1292.00
1669.75,1250.00
1671.52,1218.00
1673.29,1228.00
1675.05,1207.00
1676.82,1197.00
1678.59,1165.00
1680.35,1186.00
1682.11,1186.00
1683.88,1154.00
1685.64,1112.00
1687.40,1207.00
1689.16,1229.00
1690.91,1229.00
1692.67,1207.00
1694.42,1175.00
1696.18,1165.00
1697.93,1165.00
1699.68,1186.00
1701.43,1229.00
1703.18,1197.00
1704.93,1123.00
1706.68,1112.00
1708.42,1144.00
1710.17,1144.00
1711.91,1144.00
1713.65,1186.00
1715.39,1122.00
1717.13,1154.00
1718.87,1143.00
1720.61,1112.00
1722.35,1101.00
1724.08,1070.00
1725.81,1048.00
1727.55,1133.00
1729.28,1165.00
1731.01,1144.00
1732.74,1123.00
1734.47,1112.00
1736.19,1080.00
1737.92,1091.00
1739.64,1112.00
1741.37,1101.00
1743.09,1027.00
1744.81,1027.00
1746.53,1017.00
1748.25,1027.00
1749.97,1080.00
1751.68,1112.00
1753.40,1091.00
1755.11,1049.00
1756.83,1059.00
1758.54,1059.00
1760.25,1069.00
1761.96,1101.00
1763.67,1069.00
1765.38,1059.00
1767.08,1027.00
1768.79,1027.00
1770.49,1006.00
1772.19,1038.00
1773.90,1017.00
1775.60,995.00
1777.30,1006.00
1778.99,1006.00
1780.69,1006.00
1782.39,1027.00
1784.08,1027.00
1785.78,921.00
1787.47,932.00
1789.16,985.00
1790.85,1027.00
1792.54,1049.00
1794.23,995.00
1795.91,1006.00
1797.60,1006.00
1799.28,1006.00
1800.97,963.00
1802.65,953.00
1804.33,974.00
1806.01,974.00
1807.69,963.00
1809.37,932.00
1811.05,932.00
1812.72,985.00
1814.40,963.00
1816.07,932.00
1817.74,900.00
1819.41,932.00
1821.08,964.00
1822.75,995.00
1824.42,974.00
1826.09,964.00
1827.75,953.00
1829.42,932.00
1831.08,932.00
1832.74,900.00
1834.40,943.00
1836.06,921.00
1837.72,890.00
1839.38,858.00
1841.04,847.00
1842.69,815.00
1844.35,868.00
1846.00,932.00
1847.65,911.00
1849.30,921.00
1850.95,911.00
1852.60,932.00
1854.25,911.00
1855.90,921.00
1857.54,932.00
1859.19,922.00
1860.83,911.00
1862.47,900.00
1864.12,889.00
1865.76,890.00
1867.40,847.00
1869.03,868.00
1870.67,858.00
1872.31,889.00
1873.94,931.00
1875.57,890.00
1877.21,869.00
1878.84,858.00
1880.47,847.00
1882.10,890.00
1883.73,847.00
1885.35,794.00
1886.98,847.00
1888.61,868.00
1890.23,805.00
1891.85,783.00
1893.47,805.00
1895.09,858.00
1896.71,826.00
1898.33,815.00
1899.95,804.00
1901.57,794.00
1903.18,795.00
1904.80,805.00
1906.41,783.00
1908.02,783.00
1909.63,805.00
1911.24,783.00
1912.85,763.00
1914.46,762.00
1916.07,826.00
1917.67,784.00
1919.28,773.00
1920.88,805.00
1922.48,784.00
1924.08,720.00
1925.68,721.00
1927.28,731.00
1928.88,710.00
1930.48,742.00
1932.07,795.00
1933.67,826.00
1935.26,794.00
1936.86,784.00
1938.45,752.00
1940.04,763.00
1941.63,784.00
1943.22,741.00
1944.80,763.00
1946.39,762.00
1947.98,773.00
1949.56,763.00
1951.14,741.00
1952.73,721.00
1954.31,699.00
1955.89,678.00
1957.47,731.00
1959.05,678.00
1960.62,699.00
1962.20,742.00
1963.77,720.00
1965.35,689.00
1966.92,720.00
1968.49,720.00
1970.06,667.00
1971.63,635.00
1973.20,689.00
1974.77,678.00
1976.34,720.00
1977.90,762.00
1979.47,741.00
1981.03,731.00
1982.59,709.00
1984.15,678.00
1985.71,657.00
1987.27,678.00
1988.83,678.00
1990.39,645.00
1991.94,646.00
1993.50,678.00
1995.05,677.00
1996.61,709.00
1998.16,720.00
1999.71,688.00
2001.26,677.00
2002.81,699.00
2004.36,699.00
2005.91,646.00
2007.45,614.00
2009.00,688.00
2010.54,688.00
2012.08,699.00
2013.62,657.00
2015.17,656.00
2016.71,635.00
2018.24,657.00
2019.78,678.00
2021.32,636.00
2022.85,657.00
2024.39,678.00
2025.92,678.00
2027.46,657.00
2028.99,667.00
2030.52,667.00
2032.05,646.00
2033.58,667.00
2035.10,667.00
2036.63,614.00
2038.16,624.00
2039.68,635.00
2041.21,636.00
2042.73,593.00
2044.25,593.00
2045.77,603.00
2047.29,582.00
2048.81,593.00
2050.33,635.00
2051.84,646.00
2053.36,636.00
2054.87,583.00
2056.39,614.00
2057.90,635.00
2059.41,636.00
2060.92,582.00
2062.43,583.00
2063.94,625.00
2065.45,657.00
2066.95,625.00
2068.46,614.00
2069.96,614.00
2071.47,615.00
2072.97,571.00
2074.47,615.00
2075.97,593.00
2077.47,561.00
2078.97,562.00
2080.47,550.00
2081.96,593.00
2083.46,583.00
2084.95,540.00
2086.45,593.00
2087.94,572.00
2089.43,561.00
2090.92,571.00
2092.41,593.00
2093.90,635.00
2095.39,562.00
2096.88,530.00
2098.36,562.00
2099.85,561.00
2101.33,561.00
2102.81,572.00
2104.30,562.00
2105.78,540.00
2107.26,530.00
2108.74,551.00
2110.21,540.00
2111.69,498.00
2113.17,509.00
2114.64,529.00
2116.12,541.00
2117.59,529.00
2119.06,508.00
2120.53,508.00
2122.00,487.00
2123.47,488.00
2124.94,508.00
2126.41,487.00
2127.87,487.00
2129.34,529.00
2130.80,508.00
2132.27,498.00
2133.73,530.00
2135.19,519.00
2136.65,540.00
2138.11,519.00
2139.57,540.00
2141.03,477.00
2142.48,477.00
2143.94,487.00
2145.39,487.00
2146.85,466.00
2148.30,455.00
2149.75,456.00
2151.20,444.00
2152.65,498.00
2154.10,509.00
2155.55,466.00
2157.00,413.00
2158.44,487.00
2159.89,540.00
2161.33,540.00
2162.78,466.00
2164.22,476.00
2165.66,466.00
2167.10,487.00
2168.54,508.00
2169.98,456.00
2171.42,466.00
2172.85,509.00
2174.29,519.00
2175.72,487.00
2177.16,455.00
2178.59,445.00
2180.02,434.00
2181.45,445.00
2182.88,466.00
2184.31,477.00
2185.74,487.00
2187.17,456.00
2188.59,444.00
2190.02,424.00
2191.44,445.00
2192.87,455.00
2194.29,445.00
2195.71,444.00
2197.13,466.00
2198.55,423.00
2199.97,391.00
2201.39,423.00
2202.81,402.00
2204.22,434.00
2205.64,434.00
2207.05,445.00
2208.46,402.00
2209.88,403.00
2211.29,444.00
2212.70,466.00
2214.11,466.00
2215.52,445.00
2216.92,424.00
2218.33,455.00
2219.74,445.00
2221.14,487.00
2222.54,455.00
2223.95,434.00
2225.35,445.00
2226.75,445.00
2228.15,424.00
2229.55,445.00
2230.95,423.00
2232.35,381.00
2233.74,402.00
2235.14,413.00
2236.53,424.00
2237.93,403.00
2239.32,445.00
2240.71,423.00
2242.10,434.00
2243.49,413.00
2244.88,392.00
2246.27,413.00
2247.66,402.00
2249.04,382.00
2250.43,413.00
2251.81,402.00
2253.20,381.00
2254.58,371.00
2255.96,392.00
2257.34,371.00
2258.72,349.00
2260.10,360.00
2261.48,423.00
2262.86,434.00
2264.23,424.00
2265.61,413.00
2266.98,445.00
2268.36,403.00
2269.73,370.00
2271.10,360.00
2272.47,360.00
2273.84,402.00
2275.21,424.00
2276.58,392.00
2277.95,381.00
2279.31,339.00
2280.68,318.00
2282.05,360.00
2283.41,339.00
2284.77,391.00
2286.13,402.00
2287.50,360.00
2288.86,329.00
2290.22,318.00
2291.57,360.00
2292.93,360.00
2294.29,297.00
2295.64,317.00
2297.00,338.00
2298.35,318.00
2299.71,350.00
2301.06,329.00
2302.41,328.00
2303.76,371.00
2305.11,371.00
2306.46,318.00
2307.81,339.00
2309.15,329.00
2310.50,349.00
2311.84,339.00
2313.19,339.00
2314.53,370.00
2315.87,392.00
2317.22,382.00
2318.56,350.00
2319.90,276.00
2321.24,307.00
2322.57,339.00
2323.91,328.00
2325.25,350.00
2326.58,328.00
2327.92,307.00
2329.25,307.00
2330.58,296.00
2331.91,339.00
2333.25,329.00
2334.58,339.00
2335.90,307.00
2337.23,307.00
2338.56,275.00
2339.89,285.00
2341.21,297.00
2342.54,275.00
2343.86,339.00
2345.19,371.00
2346.51,360.00
2347.83,328.00
2349.15,317.00
2350.47,276.00
2351.79,329.00
2353.11,339.00
2354.42,285.00
2355.74,297.00
2357.06,233.00
2358.37,233.00
2359.68,254.00
2361.00,275.00
2362.31,275.00
2363.62,297.00
2364.93,254.00
2366.24,254.00
2367.55,339.00
2368.86,285.00
2370.16,233.00
2371.47,264.00
2372.77,255.00
2374.08,254.00
2375.38,264.00
2376.68,276.00
2377.98,275.00
2379.29,254.00
2380.59,318.00
2381.88,328.00
2383.18,339.00
2384.48,286.00
2385.78,296.00
2387.07,329.00
2388.37,307.00
2389.66,317.00
2390.95,307.00
2392.25,296.00
2393.54,318.00
2394.83,286.00
2396.12,212.00
2397.41,255.00
2398.70,244.00
2399.98,233.00
2401.27,233.00
2402.55,276.00
2403.84,264.00
2405.12,254.00
2406.41,233.00
2407.69,233.00
2408.97,264.00
2410.25,244.00
2411.53,243.00
2412.81,255.00
2414.09,297.00
2415.36,254.00
2416.64,264.00
2417.91,275.00
2419.19,265.00
2420.46,233.00
2421.74,223.00
2423.01,233.00
2424.28,264.00
2425.55,275.00
2426.82,254.00
2428.09,233.00
2429.36,212.00
2430.62,233.00
2431.89,254.00
2433.15,254.00
2434.42,212.00
2435.68,212.00
2436.94,223.00
2438.21,190.00
2439.47,211.00
2440.73,201.00
2441.99,233.00
2443.25,233.00
2444.51,276.00
2445.76,244.00
2447.02,255.00
2448.27,276.00
2449.53,212.00
2450.78,233.00
2452.03,275.00
2453.29,212.00
2454.54,233.00
2455.79,244.00
2457.04,275.00
2458.29,275.00
2459.54,233.00
2460.78,180.00
2462.03,233.00
2463.27,191.00
2464.52,212.00
2465.76,243.00
2467.01,275.00
2468.25,276.00
2469.49,233.00
2470.73,255.00
2471.97,233.00
2473.21,254.00
2474.45,233.00
2475.69,201.00
2476.92,202.00
2478.16,212.00
2479.39,201.00
2480.63,127.00
2481.86,170.00
2483.09,254.00
2484.32,275.00
2485.56,254.00
2486.79,254.00
2488.02,244.00
2489.24,244.00
2490.47,223.00
2491.70,180.00
2492.92,243.00
2494.15,222.00
2495.37,158.00
2496.60,148.00
2497.82,169.00
2499.04,170.00
2500.26,223.00
2501.48,233.00
2502.70,212.00
2503.92,212.00
2505.14,180.00
2506.36,201.00
2507.58,222.00
2508.79,191.00
2510.01,169.00
2511.22,201.00
2512.43,212.00
2513.64,212.00
2514.86,201.00
2516.07,201.00
2517.28,212.00
2518.49,233.00
2519.70,191.00
2520.90,138.00
2522.11,180.00
2523.32,180.00
2524.52,170.00
2525.73,180.00
2526.93,180.00
2528.13,180.00
2529.33,201.00
2530.54,191.00
2531.74,170.00
2532.94,169.00
2534.14,159.00
2535.33,180.00
2536.53,212.00
2537.73,212.00
2538.92,170.00
2540.12,149.00
2541.31,170.00
2542.51,170.00
2543.70,191.00
2544.89,190.00
2546.08,137.00
2547.27,180.00
2548.46,191.00
2549.65,169.00
2550.84,138.00
2552.03,170.00
2553.21,212.00
2554.40,190.00
2555.58,169.00
2556.77,169.00
2557.95,180.00
2559.13,233.00
2560.31,201.00
2561.50,159.00
2562.68,223.00
2563.85,159.00
2565.03,106.00
2566.21,148.00
2567.39,159.00
2568.56,180.00
2569.74,212.00
2570.91,180.00
2572.09,149.00
2573.26,149.00
2574.43,170.00
2575.61,170.00
2576.78,170.00
2577.95,127.00
2579.12,158.00
2580.29,212.00
2581.45,170.00
2582.62,190.00
2583.79,212.00
2584.95,212.00
2586.12,159.00
2587.28,169.00
2588.44,127.00
2589.61,137.00
2590.77,180.00
2591.93,170.00
2593.09,117.00
2594.25,159.00
2595.41,159.00
2596.56,170.00
2597.72,159.00
2598.88,148.00
2600.03,127.00
2601.19,170.00
2602.34,170.00
2603.50,169.00
2604.65,170.00
2605.80,149.00
2606.95,138.00
2608.10,138.00
2609.25,191.00
2610.40,191.00
2611.55,117.00
2612.70,106.00
2613.84,138.00
2614.99,117.00
2616.13,116.00
2617.28,138.00
2618.42,148.00
2619.56,159.00
2620.71,233.00
2621.85,202.00
2622.99,169.00
2624.13,170.00
2625.27,127.00
2626.40,169.00
2627.54,191.00
2628.68,127.00
2629.81,127.00
2630.95,148.00
2632.08,127.00
2633.22,138.00
2634.35,180.00
2635.48,127.00
2636.61,116.00
2637.74,148.00
2638.87,149.00
2640.00,85.00
2641.13,63.00
2642.26,137.00
2643.39,128.00
2644.51,106.00
2645.64,85.00
2646.76,138.00
2647.89,137.00
2649.01,106.00
2650.13,85.00
2651.25,64.00
2652.38,117.00
2653.50,117.00
2654.62,85.00
2655.73,170.00
2656.85,180.00
2657.97,127.00
2659.09,127.00
2660.20,137.00
2661.32,137.00
2662.43,106.00
2663.55,127.00
2664.66,148.00
2665.77,128.00
2666.88,159.00
2667.99,158.00
2669.10,138.00
2670.21,106.00
2671.32,148.00
2672.43,116.00
2673.54,117.00
2674.64,106.00
2675.75,106.00
2676.85,137.00
2677.96,148.00
2679.06,117.00
2680.16,117.00
2681.26,138.00
2682.37,148.00
2683.47,106.00
2684.57,85.00
2685.66,148.00
2686.76,169.00
2687.86,149.00
2688.96,191.00
2690.05,149.00
2691.15,95.00
2692.24,148.00
2693.34,149.00
2694.43,106.00
2695.52,138.00
2696.62,106.00
2697.71,169.00
2698.80,191.00
2699.89,117.00
2700.98,127.00
2702.06,127.00
2703.15,106.00
2704.24,127.00
2705.32,106.00
2706.41,106.00
2707.49,95.00
2708.58,137.00
2709.66,159.00
2710.74,159.00
2711.83,137.00
2712.91,127.00
2713.99,85.00
2715.07,137.00
2716.15,159.00
2717.22,95.00
2718.30,106.00
2719.38,127.00
2720.45,138.00
2721.53,148.00
2722.60,127.00
2723.68,117.00
2724.75,148.00
2725.82,148.00
2726.89,127.00
2727.97,127.00
2729.04,85.00
2730.11,106.00
2731.17,106.00
2732.24,95.00
2733.31,85.00
2734.38,128.00
2735.44,138.00
2736.51,106.00
2737.57,85.00
2738.64,95.00
2739.70,84.00
2740.76,64.00
2741.82,74.00
2742.89,52.00
2743.95,95.00
2745.01,106.00
2746.07,74.00
2747.12,63.00
2748.18,74.00
2749.24,127.00
2750.29,116.00
2751.35,106.00
2752.40,85.00
2753.46,127.00
2754.51,138.00
2755.57,127.00
2756.62,106.00
2757.67,137.00
2758.72,116.00
2759.77,106.00
2760.82,116.00
2761.87,75.00
2762.91,85.00
2763.96,84.00
2765.01,85.00
2766.05,74.00
2767.10,64.00
2768.14,64.00
2769.19,43.00
2770.23,106.00
2771.27,63.00
2772.31,106.00
2773.35,127.00
2774.40,127.00
2775.43,85.00
2776.47,95.00
2777.51,169.00
2778.55,106.00
2779.59,106.00
2780.62,116.00
2781.66,106.00
2782.69,75.00
2783.73,85.00
2784.76,84.00
2785.79,85.00
2786.82,95.00
2787.85,105.00
2788.89,117.00
2789.92,64.00
2790.94,64.00
2791.97,74.00
2793.00,53.00
2794.03,32.00
2795.05,105.00
2796.08,74.00
2797.11,85.00
2798.13,85.00
2799.15,63.00
2800.18,42.00
2801.20,85.00
2802.22,106.00
2803.24,127.00
2804.26,106.00
2805.28,64.00
2806.30,96.00
2807.32,106.00
2808.34,106.00
2809.35,85.00
2810.37,96.00
2811.39,85.00
2812.40,106.00
2813.41,117.00
2814.43,138.00
2815.44,64.00
2816.45,32.00
2817.46,53.00
2818.48,32.00
2819.49,52.00
2820.49,95.00
2821.50,85.00
2822.51,74.00
2823.52,0.00
2824.53,43.00
2825.53,95.00
2826.54,53.00
2827.54,63.00
2828.55,106.00
2829.55,84.00
2830.55,85.00
2831.55,84.00
2832.56,42.00
2833.56,53.00
2834.56,117.00
2835.56,137.00
2836.56,64.00
2837.55,53.00
2838.55,85.00
2839.55,127.00
2840.54,63.00
2841.54,53.00
2842.53,95.00
2843.53,85.00
2844.52,53.00
2845.51,42.00
2846.51,53.00
2847.50,21.00
2848.49,53.00
2849.48,85.00
2850.47,84.00
2851.46,85.00
2852.45,85.00
2853.43,53.00
2854.42,21.00
2855.41,0.00
2856.39,42.00
2857.38,53.00
2858.36,42.00
2859.34,63.00
2860.33,84.00
2861.31,84.00
2862.29,43.00
2863.27,64.00
2864.25,84.00
2865.23,64.00
2866.21,53.00
2867.19,32.00
2868.17,21.00
2869.14,22.00
2870.12,32.00
2871.09,63.00
2872.07,63.00
2873.04,84.00
2874.02,85.00
2874.99,52.00
2875.96,64.00
2876.93,85.00
2877.91,42.00
2878.88,64.00
2879.85,84.00
2880.82,116.00
2881.78,95.00
2882.75,74.00
2883.72,74.00
2884.69,63.00
2885.65,74.00
2886.62,84.00
2887.58,64.00
2888.55,95.00
2889.51,106.00
2890.47,64.00
2891.43,74.00
2892.39,85.00
2893.36,75.00
2894.31,63.00
2895.27,74.00
2896.23,106.00
2897.19,84.00
2898.15,63.00
2899.11,85.00
2900.06,127.00
2901.02,84.00
2901.97,74.00
2902.93,84.00
2903.88,32.00
2904.83,32.00
2905.79,85.00
2906.74,106.00
2907.69,43.00
2908.64,43.00
2909.59,74.00
2910.54,95.00
2911.49,21.00
2912.43,52.00
2913.38,74.00
2914.33,21.00
2915.27,0.00
2916.22,21.00
2917.16,85.00
2918.11,74.00
2919.05,32.00
2919.99,53.00
2920.94,74.00
2921.88,53.00
2922.82,52.00
2923.76,74.00
2924.70,85.00
2925.64,95.00
2926.58,85.00
2927.51,42.00
2928.45,64.00
2929.39,105.00
2930.32,74.00
2931.26,64.00
2932.19,85.00
2933.13,64.00
2934.06,85.00
2934.99,43.00
2935.92,22.00
2936.86,53.00
2937.79,95.00
2938.72,43.00
2939.65,43.00
2940.57,85.00
2941.50,74.00
2942.43,85.00
2943.36,84.00
2944.28,0.00
2945.21,21.00
2946.13,42.00
2947.06,42.00
2947.98,85.00
2948.91,63.00
2949.83,63.00
2950.75,42.00
2951.67,84.00
2952.59,84.00
2953.51,64.00
2954.43,106.00
2955.35,117.00
2956.27,64.00
2957.19,22.00
2958.10,53.00
2959.02,85.00
2959.94,74.00
2960.85,64.00
2961.77,32.00
2962.68,0.00
2963.59,42.00
2964.51,85.00
2965.42,74.00
2966.33,75.00
2967.24,127.00
2968.15,95.00
2969.06,11.00
2969.97,21.00
2970.88,11.00
2971.78,21.00
2972.69,21.00
2973.60,53.00
2974.50,116.00
2975.41,106.00
2976.31,85.00
2977.22,74.00
2978.12,84.00
2979.02,137.00
2979.93,106.00
2980.83,84.00
2981.73,75.00
2982.63,52.00
2983.53,85.00
2984.43,63.00
2985.33,53.00
2986.22,21.00
2987.12,42.00
2988.02,84.00
2988.91,85.00
2989.81,106.00
2990.70,21.00
2991.60,10.00
2992.49,42.00
2993.38,85.00
2994.28,42.00
2995.17,32.00
2996.06,95.00
2996.95,138.00
2997.84,95.00
2998.73,32.00
2999.62,63.00
3000.51,32.00
3001.40,43.00
3002.28,42.00
3003.17,53.00
3004.05,43.00
3004.94,42.00
3005.82,0.00
3006.71,21.00
3007.59,43.00
3008.47,32.00
3009.36,21.00
3010.24,0.00
3011.12,0.00
3012.00,21.00
3012.88,63.00
3013.76,74.00
3014.64,42.00
3015.51,0.00
3016.39,42.00
3017.27,0.00
3018.14,10.00
3019.02,42.00
3019.89,43.00
3020.77,53.00
3021.64,74.00
3022.52,85.00
3023.39,11.00
3024.26,0.00
3025.13,10.00
3026.00,64.00
3026.87,64.00
3027.74,42.00
3028.61,64.00
3029.48,42.00
3030.35,42.00
3031.21,0.00
3032.08,21.00
3032.95,74.00
3033.81,53.00
3034.68,22.00
3035.54,21.00
3036.40,0.00
3037.27,11.00
3038.13,0.00
3038.99,42.00
3039.85,85.00
3040.71,85.00
3041.57,95.00
3042.43,43.00
3043.29,21.00
3044.15,53.00
3045.01,32.00
3045.86,53.00
3046.72,85.00
3047.58,64.00
3048.43,43.00
3049.29,42.00
3050.14,42.00
3050.99,32.00
3051.85,0.00
3052.70,0.00
3053.55,21.00
3054.40,53.00
3055.25,32.00
3056.10,43.00
3056.95,32.00
3057.80,42.00
3058.65,21.00
3059.50,21.00
3060.34,21.00
3061.19,32.00
3062.04,42.00
3062.88,74.00
3063.73,43.00
3064.57,32.00
3065.42,85.00
3066.26,84.00
3067.10,42.00
3067.94,42.00
3068.78,42.00
3069.63,42.00
3070.47,52.00
3071.31,63.00
3072.14,42.00
3072.98,32.00
3073.82,63.00
3074.66,21.00
3075.49,32.00
3076.33,53.00
3077.17,42.00
3078.00,10.00
3078.83,32.00
3079.67,64.00
3080.50,42.00
3081.33,0.00
3082.17,10.00
3083.00,84.00
3083.83,63.00
3084.66,21.00
3085.49,32.00
3086.32,42.00
3087.15,64.00
3087.97,32.00
3088.80,42.00
3089.63,53.00
3090.46,10.00
3091.28,21.00
3092.11,0.00
3092.93,43.00
3093.75,43.00
3094.58,11.00
3095.40,0.00
3096.22,21.00
3097.05,32.00
3097.87,52.00
3098.69,53.00
3099.51,63.00
3100.33,63.00
3101.15,42.00
3101.96,63.00
3102.78,85.00
3103.60,32.00
3104.42,32.00
3105.23,21.00
3106.05,53.00
3106.86,42.00
3107.68,53.00
3108.49,42.00
3109.30,0.00
3110.12,-42.00
3110.93,-21.00
3111.74,74.00
3112.55,85.00
3113.36,42.00
3114.17,21.00
3114.98,0.00
3115.79,21.00
3116.60,53.00
3117.40,11.00
3118.21,43.00
3119.02,21.00
3119.82,21.00
3120.63,0.00
3121.43,-32.00
3122.24,31.00
3123.04,21.00
3123.84,63.00
3124.65,-21.00
3125.45,-21.00
3126.25,21.00
3127.05,-32.00
3127.85,0.00
3128.65,43.00
3129.45,21.00
3130.25,53.00
3131.05,43.00
3131.84,11.00
3132.64,63.00
3133.44,21.00
3134.23,11.00
3135.03,-21.00
3135.82,-32.00
3136.62,-32.00
3137.41,0.00
3138.20,21.00
3139.00,42.00
3139.79,42.00
3140.58,11.00
3141.37,53.00
3142.16,11.00
3142.95,42.00
3143.74,22.00
3144.53,0.00
3145.32,11.00
3146.10,-42.00
3146.89,0.00
3147.68,-32.00
3148.46,-53.00
3149.25,-21.00
3150.03,10.00
3150.82,43.00
3151.60,32.00
3152.38,42.00
3153.17,42.00
3153.95,21.00
3154.73,11.00
3155.51,22.00
3156.29,43.00
3157.07,53.00
3157.85,0.00
3158.63,-43.00
3159.41,10.00
3160.18,32.00
3160.96,0.00
3161.74,-32.00
3162.51,21.00
3163.29,32.00
3164.06,43.00
3164.84,0.00
3165.61,0.00
3166.38,0.00
3167.16,-10.00
3167.93,-21.00
3168.70,0.00
3169.47,21.00
3170.24,21.00
3171.01,32.00
3171.78,10.00
3172.55,-11.00
3173.32,-32.00
3174.09,0.00
3174.85,0.00
3175.62,42.00
3176.39,22.00
3177.15,42.00
3177.92,42.00
3178.68,11.00
3179.45,10.00
3180.21,63.00
3180.97,0.00
3181.73,10.00
3182.50,32.00
3183.26,-10.00
3184.02,0.00
3184.78,11.00
3185.54,11.00
3186.30,0.00
3187.05,0.00
3187.81,21.00
3188.57,53.00
3189.33,32.00
3190.08,32.00
3190.84,0.00
3191.59,-22.00
3192.35,0.00
3193.10,0.00
3193.86,0.00
3194.61,63.00
3195.36,21.00
3196.12,0.00
3196.87,0.00
3197.62,0.00
3198.37,-11.00
3199.12,32.00
3199.87,11.00
3200.62,21.00
3201.36,-21.00
3202.11,53.00
3202.86,21.00
3203.61,10.00
3204.35,11.00
3205.10,-11.00
3205.84,53.00
3206.59,42.00
3207.33,22.00
3208.08,0.00
3208.82,10.00
3209.56,0.00
3210.30,42.00
3211.05,21.00
3211.79,21.00
3212.53,11.00
3213.27,21.00
3214.01,-10.00
3214.75,-53.00
3215.48,11.00
3216.22,42.00
3216.96,-53.00
3217.69,-63.00
3218.43,0.00
3219.17,43.00
3219.90,0.00
3220.64,11.00
3221.37,22.00
3222.10,32.00
3222.84,0.00
3223.57,21.00
3224.30,0.00
3225.03,11.00
3225.76,21.00
3226.49,-53.00
3227.22,-21.00
3227.95,32.00
3228.68,22.00
3229.41,32.00
3230.14,22.00
3230.87,-11.00
3231.59,21.00
3232.32,64.00
3233.04,0.00
3233.77,10.00
3234.49,0.00
3235.22,74.00
3235.94,43.00
3236.66,11.00
3237.39,42.00
3238.11,31.00
3238.83,-10.00
3239.55,32.00
3240.27,11.00
3240.99,0.00
3241.71,-21.00
3242.43,-11.00
3243.15,-10.00
3243.87,-11.00
3244.58,21.00
3245.30,-10.00
3246.02,10.00
3246.73,22.00
3247.45,64.00
3248.16,32.00
3248.88,63.00
3249.59,22.00
3250.30,-21.00
3251.01,0.00
3251.73,-11.00
3252.44,-64.00
3253.15,10.00
3253.86,42.00
3254.57,-21.00
3255.28,-85.00
3255.99,21.00
3256.70,32.00
3257.41,0.00
3258.11,42.00
3258.82,53.00
3259.53,127.00
3260.23,53.00
3260.94,0.00
3261.64,-10.00
3262.35,32.00
3263.05,22.00
3263.76,0.00
3264.46,74.00
3265.16,22.00
3265.86,-21.00
3266.56,11.00
3267.26,64.00
3267.97,74.00
3268.67,32.00
3269.36,32.00
3270.06,0.00
3270.76,-42.00
3271.46,-11.00
3272.16,-11.00
3272.85,0.00
