RamanShift,Intensity
180.91,270.00
183.74,349.00
186.56,519.00
189.39,731.00
192.21,964.00
195.03,1334.00
197.84,1906.00
200.66,2637.00
203.47,3441.00
206.28,4320.00
209.09,5104.00
211.89,5771.00
214.70,6279.00
217.50,6692.00
220.30,6915.00
223.10,7063.00
225.89,7169.00
228.69,7306.00
231.48,7307.00
234.27,7497.00
237.05,7582.00
239.84,7486.00
242.62,7402.00
245.40,7466.00
248.18,7497.00
250.96,7423.00
253.73,7275.00
256.51,7148.00
259.28,7084.00
262.05,7084.00
264.81,6999.00
267.58,6915.00
270.34,6946.00
273.10,6862.00
275.86,6808.00
278.61,6947.00
281.37,6946.00
284.12,6915.00
286.87,6978.00
289.62,6883.00
292.36,6851.00
295.11,6861.00
297.85,6820.00
300.59,6830.00
303.33,6798.00
306.06,6830.00
308.80,6873.00
311.53,6872.00
314.26,6915.00
316.99,6894.00
319.71,6926.00
322.44,7010.00
325.16,6936.00
327.88,6873.00
330.59,6862.00
333.31,6798.00
336.02,6639.00
338.73,6682.00
341.44,6809.00
344.15,6830.00
346.86,6724.00
349.56,6734.00
352.26,6808.00
354.96,6735.00
357.66,6724.00
360.35,6767.00
363.05,6777.00
365.74,6978.00
368.43,6936.00
371.12,6936.00
373.80,7010.00
376.48,7021.00
379.17,6979.00
381.85,6999.00
384.52,6989.00
387.20,7052.00
389.87,7105.00
392.54,7169.00
395.21,7031.00
397.88,6978.00
400.55,6967.00
403.21,7031.00
405.87,7052.00
408.53,6999.00
411.19,6978.00
413.84,7042.00
416.50,7031.00
419.15,6989.00
421.80,6915.00
424.45,6840.00
427.10,6925.00
429.74,7053.00
432.38,6957.00
435.02,6873.00
437.66,6905.00
440.30,7021.00
442.93,6989.00
445.56,6894.00
448.19,6809.00
450.82,6999.00
453.45,7020.00
456.07,6883.00
458.70,6946.00
461.32,6968.00
463.94,6999.00
466.55,6914.00
469.17,6883.00
471.78,6926.00
474.39,6915.00
477.00,6979.00
479.61,7010.00
482.22,7020.00
484.82,6947.00
487.42,6862.00
490.02,6862.00
492.62,6989.00
495.21,6925.00
497.81,6852.00
500.40,6714.00
502.99,6639.00
505.58,6841.00
508.17,6883.00
510.75,6767.00
513.33,6713.00
515.91,6713.00
518.49,6756.00
521.07,6692.00
523.65,6745.00
526.22,6702.00
528.79,6618.00
531.36,6672.00
533.93,6682.00
536.49,6629.00
539.06,6660.00
541.62,6639.00
544.18,6714.00
546.74,6745.00
549.30,6714.00
551.85,6661.00
554.40,6587.00
556.95,6533.00
559.50,6512.00
562.05,6534.00
564.59,6502.00
567.14,6418.00
569.68,6555.00
572.22,6534.00
574.76,6523.00
577.29,6428.00
579.83,6386.00
582.36,6396.00
584.89,6375.00
587.42,6365.00
589.95,6301.00
592.47,6322.00
594.99,6279.00
597.52,6237.00
600.04,6237.00
602.55,6237.00
605.07,6226.00
607.58,6258.00
610.09,6237.00
612.60,6216.00
615.11,6184.00
617.62,6099.00
620.12,6099.00
622.63,6173.00
625.13,6174.00
627.63,6173.00
630.13,6110.00
632.62,6015.00
635.12,6004.00
637.61,6089.00
640.10,6153.00
642.59,6068.00
645.07,5951.00
647.56,5888.00
650.04,5940.00
652.52,6068.00
655.00,6047.00
657.48,5930.00
659.96,5835.00
662.43,5835.00
664.90,5887.00
667.37,5919.00
669.84,5961.00
672.31,5930.00
674.78,5919.00
677.24,5898.00
679.70,5919.00
682.16,5866.00
684.62,5888.00
687.08,5845.00
689.53,5888.00
691.98,5877.00
694.43,5750.00
696.88,5803.00
699.33,5771.00
701.78,5707.00
704.22,5687.00
706.66,5655.00
709.10,5580.00
711.54,5644.00
713.98,5591.00
716.42,5453.00
718.85,5591.00
721.28,5708.00
723.71,5771.00
726.14,5824.00
728.57,5877.00
730.99,5866.00
733.41,5845.00
735.83,5814.00
738.25,5750.00
740.67,5654.00
743.09,5601.00
745.50,5485.00
747.91,5347.00
750.33,5284.00
752.73,5242.00
755.14,5242.00
757.55,5241.00
759.95,5157.00
762.35,5242.00
764.75,5305.00
767.15,5178.00
769.55,5114.00
771.95,5157.00
774.34,5221.00
776.73,5231.00
779.12,5231.00
781.51,5221.00
783.90,5072.00
786.28,4967.00
788.67,5093.00
791.05,5135.00
793.43,5104.00
795.80,5157.00
798.18,5179.00
800.56,5104.00
802.93,5083.00
805.30,5115.00
807.67,4998.00
810.04,4924.00
812.40,5030.00
814.77,5030.00
817.13,4967.00
819.49,4924.00
821.85,4903.00
824.21,4893.00
826.57,4881.00
828.92,4776.00
831.27,4829.00
833.63,4829.00
835.98,4829.00
838.32,4754.00
840.67,4669.00
843.01,4669.00
845.36,4681.00
847.70,4755.00
850.04,4723.00
852.37,4776.00
854.71,4755.00
857.05,4691.00
859.38,4617.00
861.71,4670.00
864.04,4755.00
866.37,4617.00
868.69,4606.00
871.02,4564.00
873.34,4458.00
875.66,4501.00
877.98,4458.00
880.30,4374.00
882.62,4426.00
884.93,4554.00
887.24,4606.00
889.55,4595.00
891.86,4564.00
894.17,4447.00
896.48,4436.00
898.78,4447.00
901.09,4448.00
903.39,4395.00
905.69,4342.00
907.99,4416.00
910.28,4437.00
912.58,4416.00
914.87,4331.00
917.16,4320.00
919.45,4383.00
921.74,4373.00
924.03,4395.00
926.31,4426.00
928.60,4415.00
930.88,4342.00
933.16,4257.00
935.44,4257.00
937.72,4257.00
939.99,4278.00
942.26,4309.00
944.54,4278.00
946.81,4225.00
949.08,4246.00
951.34,4151.00
953.61,4162.00
955.87,4214.00
958.14,4236.00
960.40,4204.00
962.66,4140.00
964.92,4194.00
967.17,4141.00
969.43,4140.00
971.68,4077.00
973.93,4035.00
976.18,3950.00
978.43,3876.00
980.68,3939.00
982.92,4014.00
985.17,4003.00
987.41,4013.00
989.65,3908.00
991.89,3897.00
994.12,3897.00
996.36,3928.00
998.59,3918.00
1000.83,3918.00
1003.06,3896.00
1005.29,3865.00
1007.51,3822.00
1009.74,3887.00
1011.97,3939.00
1014.19,3876.00
1016.41,3843.00
1018.63,3844.00
1020.85,3844.00
1023.07,3833.00
1025.28,3801.00
1027.49,3802.00
1029.71,3717.00
1031.92,3759.00
1034.13,3865.00
1036.33,3886.00
1038.54,3770.00
1040.74,3759.00
1042.95,3717.00
1045.15,3707.00
1047.35,3738.00
1049.55,3696.00
1051.74,3716.00
1053.94,3664.00
1056.13,3642.00
1058.32,3633.00
1060.51,3632.00
1062.70,3728.00
1064.89,3738.00
1067.08,3632.00
1069.26,3622.00
1071.44,3611.00
1073.63,3621.00
1075.81,3675.00
1077.98,3717.00
1080.16,3706.00
1082.34,3590.00
1084.51,3473.00
1086.68,3484.00
1088.85,3495.00
1091.02,3527.00
1093.19,3505.00
1095.35,3474.00
1097.52,3536.00
1099.68,3410.00
1101.84,3378.00
1104.00,3516.00
1106.16,3463.00
1108.32,3357.00
1110.48,3378.00
1112.63,3484.00
1114.78,3473.00
1116.93,3389.00
1119.08,3293.00
1121.23,3378.00
1123.38,3315.00
1125.52,3229.00
1127.67,3262.00
1129.81,3262.00
1131.95,3272.00
1134.09,3293.00
1136.22,3357.00
1138.36,3336.00
1140.50,3261.00
1142.63,3209.00
1144.76,3166.00
1146.89,3251.00
1149.02,3262.00
1151.15,3198.00
1153.27,3209.00
1155.40,3187.00
1157.52,3177.00
1159.64,3230.00
1161.76,3229.00
1163.88,3283.00
1165.99,3188.00
1168.11,3166.00
1170.22,3156.00
1172.34,3124.00
1174.45,3187.00
1176.56,3187.00
1178.66,3230.00
1180.77,3177.00
1182.88,3155.00
1184.98,3198.00
1187.08,3124.00
1189.18,3082.00
1191.28,3145.00
1193.38,3124.00
1195.47,3124.00
1197.57,3039.00
1199.66,3028.00
1201.75,3135.00
1203.85,3166.00
1205.93,3124.00
1208.02,3050.00
1210.11,3124.00
1212.19,3134.00
1214.28,2996.00
1216.36,2923.00
1218.44,2955.00
1220.52,2987.00
1222.59,2997.00
1224.67,3092.00
1226.74,3029.00
1228.82,2975.00
1230.89,3040.00
1232.96,3018.00
1235.03,2954.00
1237.10,2975.00
1239.16,2997.00
1241.23,2987.00
1243.29,2965.00
1245.35,2986.00
1247.41,2933.00
1249.47,2912.00
1251.53,2902.00
1253.58,2912.00
1255.64,2902.00
1257.69,2838.00
1259.74,2849.00
1261.79,2902.00
1263.84,2859.00
1265.89,2912.00
1267.93,2848.00
1269.98,2806.00
1272.02,2806.00
1274.06,2849.00
1276.10,2827.00
1278.14,2806.00
1280.18,2774.00
1282.22,2774.00
1284.25,2806.00
1286.28,2753.00
1288.32,2657.00
1290.35,2742.00
1292.38,2742.00
1294.40,2636.00
1296.43,2690.00
1298.46,2743.00
1300.48,2795.00
1302.50,2806.00
1304.52,2796.00
1306.54,2722.00
1308.56,2626.00
1310.58,2584.00
1312.59,2647.00
1314.60,2785.00
1316.62,2828.00
1318.63,2785.00
1320.64,2711.00
1322.65,2775.00
1324.65,2859.00
1326.66,2827.00
1328.66,2785.00
1330.66,2764.00
1332.67,2764.00
1334.67,2817.00
1336.66,2732.00
1338.66,2700.00
1340.66,2753.00
1342.65,2796.00
1344.65,2711.00
1346.64,2583.00
1348.63,2679.00
1350.62,2700.00
1352.60,2637.00
1354.59,2637.00
1356.57,2605.00
1358.56,2594.00
1360.54,2583.00
1362.52,2499.00
1364.50,2477.00
1366.48,2499.00
1368.46,2542.00
1370.43,2552.00
1372.41,2562.00
1374.38,2562.00
1376.35,2541.00
1378.32,2562.00
1380.29,2563.00
1382.25,2499.00
1384.22,2520.00
1386.18,2488.00
1388.15,2446.00
1390.11,2414.00
1392.07,2424.00
1394.03,2457.00
1395.99,2520.00
1397.94,2468.00
1399.90,2478.00
1401.85,2542.00
1403.80,2478.00
1405.76,2436.00
1407.71,2446.00
1409.65,2414.00
1411.60,2456.00
1413.55,2478.00
1415.49,2446.00
1417.44,2404.00
1419.38,2394.00
1421.32,2372.00
1423.26,2329.00
1425.19,2361.00
1427.13,2351.00
1429.07,2308.00
1431.00,2319.00
1432.93,2340.00
1434.86,2319.00
1436.79,2309.00
1438.72,2266.00
1440.65,2245.00
1442.57,2224.00
1444.50,2266.00
1446.42,2276.00
1448.34,2319.00
1450.26,2319.00
1452.18,2203.00
1454.10,2213.00
1456.02,2244.00
1457.93,2224.00
1459.85,2297.00
1461.76,2309.00
1463.67,2276.00
1465.58,2298.00
1467.49,2277.00
1469.40,2245.00
1471.31,2245.00
1473.21,2245.00
1475.11,2213.00
1477.02,2224.00
1478.92,2214.00
1480.82,2235.00
1482.72,2234.00
1484.61,2213.00
1486.51,2139.00
1488.40,2129.00
1490.30,2107.00
1492.19,2128.00
1494.08,2118.00
1495.97,2139.00
1497.86,2139.00
1499.74,2076.00
1501.63,2097.00
1503.51,2160.00
1505.40,2149.00
1507.28,2065.00
1509.16,2064.00
1511.04,2128.00
1512.92,2170.00
1514.79,2128.00
1516.67,2118.00
1518.54,2086.00
1520.42,2096.00
1522.29,2065.00
1524.16,2022.00
1526.03,2065.00
1527.89,2086.00
1529.76,2108.00
1531.63,2076.00
1533.49,1980.00
1535.35,2011.00
1537.21,1948.00
1539.07,1969.00
1540.93,1970.00
1542.79,1990.00
1544.65,2001.00
1546.50,2022.00
1548.36,1927.00
1550.21,1906.00
1552.06,1980.00
1553.91,1991.00
1555.76,2034.00
1557.61,1991.00
1559.45,1959.00
1561.30,1906.00
1563.14,1927.00
1564.98,1906.00
1566.82,1885.00
1568.67,1948.00
1570.50,1949.00
1572.34,1906.00
1574.18,1885.00
1576.01,1884.00
1577.85,1863.00
1579.68,1864.00
1581.51,1927.00
1583.34,1938.00
1585.17,1885.00
1587.00,1885.00
1588.82,1917.00
1590.65,1832.00
1592.47,1822.00
1594.30,1864.00
1596.12,1832.00
1597.94,1821.00
1599.76,1842.00
1601.57,1790.00
1603.39,1800.00
1605.21,1779.00
1607.02,1864.00
1608.83,1842.00
1610.64,1842.00
1612.45,1768.00
1614.26,1747.00
1616.07,1800.00
1617.88,1768.00
1619.68,1736.00
1621.49,1758.00
1623.29,1853.00
1625.09,1779.00
1626.89,1673.00
1628.69,1716.00
1630.49,1768.00
1632.29,1715.00
1634.08,1684.00
1635.88,1705.00
1637.67,1715.00
1639.46,1779.00
1641.25,1726.00
1643.04,1705.00
1644.83,1715.00
1646.62,1737.00
1648.41,1736.00
1650.19,1695.00
1651.97,1662.00
1653.76,1662.00
1655.54,1694.00
1657.32,1662.00
1659.10,1610.00
1660.88,1599.00
1662.65,1673.00
1664.43,1673.00
1666.20,1599.00
1667.97,1567.00
1669.75,1578.00
1671.52,1641.00
1673.29,1630.00
1675.05,1588.00
1676.82,1546.00
1678.59,1578.00
1680.35,1652.00
1682.11,1673.00
1683.88,1567.00
1685.64,1482.00
1687.40,1461.00
1689.16,1525.00
1690.91,1503.00
1692.67,1524.00
1694.42,1504.00
1696.18,1504.00
1697.93,1472.00
1699.68,1546.00
1701.43,1567.00
1703.18,1546.00
1704.93,1525.00
1706.68,1504.00
1708.42,1504.00
1710.17,1440.00
1711.91,1451.00
1713.65,1451.00
1715.39,1419.00
1717.13,1440.00
1718.87,1482.00
1720.61,1462.00
1722.35,1419.00
1724.08,1451.00
1725.81,1419.00
1727.55,1387.00
1729.28,1366.00
1731.01,1419.00
1732.74,1462.00
1734.47,1430.00
1736.19,1398.00
1737.92,1366.00
1739.64,1314.00
1741.37,1355.00
1743.09,1355.00
1744.81,1376.00
1746.53,1441.00
1748.25,1430.00
1749.97,1387.00
1751.68,1387.00
1753.40,1387.00
1755.11,1398.00
1756.83,1355.00
1758.54,1313.00
1760.25,1281.00
1761.96,1282.00
1763.67,1250.00
1765.38,1355.00
1767.08,1398.00
1768.79,1388.00
1770.49,1303.00
1772.19,1292.00
1773.90,1334.00
1775.60,1324.00
1777.30,1303.00
1778.99,1334.00
1780.69,1344.00
1782.39,1345.00
1784.08,1292.00
1785.78,1281.00
1787.47,1249.00
1789.16,1239.00
1790.85,1302.00
1792.54,1313.00
1794.23,1302.00
1795.91,1313.00
1797.60,1250.00
1799.28,1229.00
1800.97,1229.00
1802.65,1260.00
1804.33,1250.00
1806.01,1239.00
1807.69,1281.00
1809.37,1292.00
1811.05,1239.00
1812.72,1249.00
1814.40,1270.00
1816.07,1218.00
1817.74,1218.00
1819.41,1218.00
1821.08,1186.00
1822.75,1197.00
1824.42,1281.00
1826.09,1324.00
1827.75,1239.00
1829.42,1186.00
1831.08,1207.00
1832.74,1228.00
1834.40,1218.00
1836.06,1186.00
1837.72,1207.00
1839.38,1196.00
1841.04,1250.00
1842.69,1250.00
1844.35,1271.00
1846.00,1260.00
1847.65,1186.00
1849.30,1176.00
1850.95,1229.00
1852.60,1229.00
1854.25,1133.00
1855.90,1123.00
1857.54,1112.00
1859.19,1090.00
1860.83,1112.00
1862.47,1144.00
1864.12,1154.00
1865.76,1186.00
1867.40,1175.00
1869.03,1123.00
1870.67,1143.00
1872.31,1186.00
1873.94,1165.00
1875.57,1133.00
1877.21,1123.00
1878.84,1112.00
1880.47,1102.00
1882.10,1102.00
1883.73,1154.00
1885.35,1133.00
1886.98,1102.00
1888.61,1017.00
1890.23,1037.00
1891.85,1006.00
1893.47,1080.00
1895.09,1154.00
1896.71,1080.00
1898.33,964.00
1899.95,1006.00
1901.57,1070.00
1903.18,1017.00
1904.80,996.00
1906.41,1027.00
1908.02,1027.00
1909.63,1101.00
1911.24,1080.00
1912.85,1038.00
1914.46,1059.00
1916.07,1038.00
1917.67,974.00
1919.28,996.00
1920.88,1027.00
1922.48,996.00
1924.08,1006.00
1925.68,953.00
1927.28,943.00
1928.88,953.00
1930.48,975.00
1932.07,974.00
1933.67,964.00
1935.26,996.00
1936.86,1069.00
1938.45,1038.00
1940.04,1017.00
1941.63,985.00
1943.22,974.00
1944.80,985.00
1946.39,953.00
1947.98,1016.00
1949.56,995.00
1951.14,921.00
1952.73,985.00
1954.31,1006.00
1955.89,942.00
1957.47,900.00
1959.05,942.00
1960.62,942.00
1962.20,869.00
1963.77,932.00
1965.35,942.00
1966.92,984.00
1968.49,953.00
1970.06,932.00
1971.63,921.00
1973.20,921.00
1974.77,922.00
1976.34,889.00
1977.90,910.00
1979.47,889.00
1981.03,911.00
1982.59,911.00
1984.15,890.00
1985.71,890.00
1987.27,932.00
1988.83,985.00
1990.39,932.00
1991.94,922.00
1993.50,953.00
1995.05,932.00
1996.61,932.00
1998.16,932.00
1999.71,922.00
2001.26,879.00
2002.81,837.00
2004.36,816.00
2005.91,836.00
2007.45,869.00
2009.00,931.00
2010.54,931.00
2012.08,868.00
2013.62,847.00
2015.17,900.00
2016.71,889.00
2018.24,890.00
2019.78,847.00
2021.32,837.00
2022.85,858.00
2024.39,921.00
2025.92,890.00
2027.46,847.00
2028.99,847.00
2030.52,837.00
2032.05,847.00
2033.58,858.00
2035.10,890.00
2036.63,847.00
2038.16,816.00
2039.68,836.00
2041.21,837.00
2042.73,848.00
2044.25,815.00
2045.77,805.00
2047.29,847.00
2048.81,826.00
2050.33,773.00
2051.84,805.00
2053.36,826.00
2054.87,752.00
2056.39,720.00
2057.90,783.00
2059.41,805.00
2060.92,826.00
2062.43,763.00
2063.94,784.00
2065.45,763.00
2066.95,784.00
2068.46,762.00
2069.96,721.00
2071.47,762.00
2072.97,783.00
2074.47,720.00
2075.97,688.00
2077.47,752.00
2078.97,805.00
2080.47,762.00
2081.96,731.00
2083.46,688.00
2084.95,709.00
2086.45,699.00
2087.94,688.00
2089.43,742.00
2090.92,741.00
2092.41,710.00
2093.90,763.00
2095.39,784.00
2096.88,678.00
2098.36,657.00
2099.85,699.00
2101.33,699.00
2102.81,667.00
2104.30,657.00
2105.78,688.00
2107.26,667.00
2108.74,657.00
2110.21,646.00
2111.69,677.00
2113.17,710.00
2114.64,720.00
2116.12,710.00
2117.59,678.00
2119.06,688.00
2120.53,678.00
2122.00,625.00
2123.47,572.00
2124.94,615.00
2126.41,635.00
2127.87,614.00
2129.34,657.00
2130.80,677.00
2132.27,656.00
2133.73,646.00
2135.19,593.00
2136.65,604.00
2138.11,625.00
2139.57,699.00
2141.03,667.00
2142.48,635.00
2143.94,668.00
2145.39,710.00
2146.85,635.00
2148.30,635.00
2149.75,656.00
2151.20,657.00
2152.65,614.00
2154.10,625.00
2155.55,657.00
2157.00,656.00
2158.44,614.00
2159.89,614.00
2161.33,646.00
2162.78,657.00
2164.22,667.00
2165.66,614.00
2167.10,625.00
2168.54,635.00
2169.98,636.00
2171.42,603.00
2172.85,593.00
2174.29,604.00
2175.72,593.00
2177.16,615.00
2178.59,657.00
2180.02,614.00
2181.45,593.00
2182.88,657.00
2184.31,614.00
2185.74,561.00
2187.17,593.00
2188.59,635.00
2190.02,603.00
2191.44,562.00
2192.87,551.00
2194.29,582.00
2195.71,593.00
2197.13,572.00
2198.55,583.00
2199.97,561.00
2201.39,593.00
2202.81,625.00
2204.22,593.00
2205.64,550.00
2207.05,593.00
2208.46,593.00
2209.88,509.00
2211.29,550.00
2212.70,604.00
2214.11,603.00
2215.52,614.00
2216.92,593.00
2218.33,561.00
2219.74,551.00
2221.14,614.00
2222.54,593.00
2223.95,551.00
2225.35,530.00
2226.75,530.00
2228.15,508.00
2229.55,497.00
2230.95,540.00
2232.35,572.00
2233.74,583.00
2235.14,572.00
2236.53,540.00
2237.93,530.00
2239.32,530.00
2240.71,519.00
2242.10,519.00
2243.49,519.00
2244.88,540.00
2246.27,530.00
2247.66,529.00
2249.04,477.00
2250.43,477.00
2251.81,530.00
2253.20,497.00
2254.58,487.00
2255.96,487.00
2257.34,529.00
2258.72,529.00
2260.10,487.00
2261.48,497.00
2262.86,508.00
2264.23,487.00
2265.61,487.00
2266.98,466.00
2268.36,444.00
2269.73,456.00
2271.10,423.00
2272.47,455.00
2273.84,466.00
2275.21,498.00
2276.58,476.00
2277.95,466.00
2279.31,435.00
2280.68,424.00
2282.05,477.00
2283.41,477.00
2284.77,466.00
2286.13,444.00
2287.50,476.00
2288.86,477.00
2290.22,466.00
2291.57,487.00
2292.93,498.00
2294.29,498.00
2295.64,476.00
2297.00,423.00
2298.35,402.00
2299.71,392.00
2301.06,392.00
2302.41,445.00
2303.76,445.00
2305.11,466.00
2306.46,444.00
2307.81,434.00
2309.15,434.00
2310.50,402.00
2311.84,445.00
2313.19,423.00
2314.53,434.00
2315.87,423.00
2317.22,391.00
2318.56,413.00
2319.90,371.00
2321.24,371.00
2322.57,424.00
2323.91,413.00
2325.25,381.00
2326.58,349.00
2327.92,392.00
2329.25,413.00
2330.58,424.00
2331.91,466.00
2333.25,445.00
2334.58,402.00
2335.90,413.00
2337.23,413.00
2338.56,370.00
2339.89,349.00
2341.21,413.00
2342.54,456.00
2343.86,413.00
2345.19,434.00
2346.51,403.00
2347.83,391.00
2349.15,445.00
2350.47,434.00
2351.79,402.00
2353.11,360.00
2354.42,381.00
2355.74,391.00
2357.06,424.00
2358.37,434.00
2359.68,403.00
2361.00,402.00
2362.31,402.00
2363.62,391.00
2364.93,423.00
2366.24,424.00
2367.55,424.00
2368.86,391.00
2370.16,360.00
2371.47,339.00
2372.77,402.00
2374.08,423.00
2375.38,402.00
2376.68,382.00
2377.98,339.00
2379.29,350.00
2380.59,403.00
2381.88,403.00
2383.18,349.00
2384.48,360.00
2385.78,350.00
2387.07,350.00
2388.37,318.00
2389.66,360.00
2390.95,382.00
2392.25,392.00
2393.54,339.00
2394.83,381.00
2396.12,360.00
2397.41,339.00
2398.70,360.00
2399.98,381.00
2401.27,360.00
2402.55,338.00
2403.84,349.00
2405.12,349.00
2406.41,328.00
2407.69,286.00
2408.97,254.00
2410.25,297.00
2411.53,339.00
2412.81,339.00
2414.09,339.00
2415.36,328.00
2416.64,328.00
2417.91,360.00
2419.19,382.00
2420.46,318.00
2421.74,318.00
2423.01,339.00
2424.28,286.00
2425.55,317.00
2426.82,381.00
2428.09,371.00
2429.36,360.00
2430.62,382.00
2431.89,339.00
2433.15,297.00
2434.42,318.00
2435.68,297.00
2436.94,318.00
2438.21,339.00
2439.47,307.00
2440.73,276.00
2441.99,318.00
2443.25,275.00
2444.51,254.00
2445.76,318.00
2447.02,297.00
2448.27,276.00
2449.53,317.00
2450.78,318.00
2452.03,318.00
2453.29,307.00
2454.54,297.00
2455.79,318.00
2457.04,297.00
2458.29,307.00
2459.54,297.00
2460.78,297.00
2462.03,276.00
2463.27,222.00
2464.52,276.00
2465.76,328.00
2467.01,329.00
2468.25,296.00
2469.49,275.00
2470.73,286.00
2471.97,307.00
2473.21,276.00
2474.45,307.00
2475.69,339.00
2476.92,296.00
2478.16,264.00
2479.39,297.00
2480.63,275.00
2481.86,339.00
2483.09,307.00
2484.32,307.00
2485.56,307.00
2486.79,297.00
2488.02,254.00
2489.24,233.00
2490.47,233.00
2491.70,254.00
2492.92,254.00
2494.15,233.00
2495.37,222.00
2496.60,275.00
2497.82,275.00
2499.04,244.00
2500.26,233.00
2501.48,275.00
2502.70,276.00
2503.92,254.00
2505.14,254.00
2506.36,265.00
2507.58,254.00
2508.79,255.00
2510.01,244.00
2511.22,297.00
2512.43,307.00
2513.64,265.00
2514.86,254.00
2516.07,254.00
2517.28,264.00
2518.49,233.00
2519.70,222.00
2520.90,244.00
2522.11,244.00
2523.32,275.00
2524.52,275.00
2525.73,233.00
2526.93,233.00
2528.13,276.00
2529.33,255.00
2530.54,275.00
2531.74,254.00
2532.94,222.00
2534.14,222.00
2535.33,212.00
2536.53,243.00
2537.73,223.00
2538.92,201.00
2540.12,212.00
2541.31,264.00
2542.51,233.00
2543.70,255.00
2544.89,212.00
2546.08,243.00
2547.27,243.00
2548.46,275.00
2549.65,275.00
2550.84,244.00
2552.03,212.00
2553.21,191.00
2554.40,212.00
2555.58,244.00
2556.77,265.00
2557.95,254.00
2559.13,255.00
2560.31,265.00
2561.50,254.00
2562.68,212.00
2563.85,233.00
2565.03,223.00
2566.21,201.00
2567.39,222.00
2568.56,212.00
2569.74,276.00
2570.91,244.00
2572.09,233.00
2573.26,190.00
2574.43,212.00
2575.61,191.00
2576.78,180.00
2577.95,180.00
2579.12,201.00
2580.29,211.00
2581.45,190.00
2582.62,233.00
2583.79,212.00
2584.95,201.00
2586.12,212.00
2587.28,191.00
2588.44,201.00
2589.61,233.00
2590.77,201.00
2591.93,223.00
2593.09,211.00
2594.25,190.00
2595.41,254.00
2596.56,243.00
2597.72,191.00
2598.88,169.00
2600.03,191.00
2601.19,170.00
2602.34,190.00
2603.50,233.00
2604.65,190.00
2605.80,170.00
2606.95,222.00
2608.10,190.00
2609.25,169.00
2610.40,212.00
2611.55,169.00
2612.70,170.00
2613.84,201.00
2614.99,212.00
2616.13,148.00
2617.28,169.00
2618.42,191.00
2619.56,148.00
2620.71,137.00
2621.85,170.00
2622.99,212.00
2624.13,244.00
2625.27,212.00
2626.40,191.00
2627.54,180.00
2628.68,170.00
2629.81,159.00
2630.95,149.00
2632.08,180.00
2633.22,169.00
2634.35,222.00
2635.48,233.00
2636.61,191.00
2637.74,170.00
2638.87,233.00
2640.00,201.00
2641.13,191.00
2642.26,148.00
2643.39,117.00
2644.51,138.00
2645.64,138.00
2646.76,138.00
2647.89,148.00
2649.01,169.00
2650.13,180.00
2651.25,190.00
2652.38,148.00
2653.50,127.00
2654.62,95.00
2655.73,149.00
2656.85,158.00
2657.97,169.00
2659.09,127.00
2660.20,159.00
2661.32,211.00
2662.43,223.00
2663.55,201.00
2664.66,159.00
2665.77,117.00
2666.88,127.00
2667.99,116.00
2669.10,158.00
2670.21,170.00
2671.32,169.00
2672.43,159.00
2673.54,149.00
2674.64,148.00
2675.75,127.00
2676.85,170.00
2677.96,148.00
2679.06,170.00
2680.16,170.00
2681.26,180.00
2682.37,169.00
2683.47,117.00
2684.57,138.00
2685.66,127.00
2686.76,169.00
2687.86,201.00
2688.96,201.00
2690.05,170.00
2691.15,169.00
2692.24,180.00
2693.34,169.00
2694.43,159.00
2695.52,148.00
2696.62,137.00
2697.71,190.00
2698.80,191.00
2699.89,169.00
2700.98,127.00
2702.06,127.00
2703.15,84.00
2704.24,180.00
2705.32,159.00
2706.41,127.00
2707.49,169.00
2708.58,170.00
2709.66,170.00
2710.74,169.00
2711.83,159.00
2712.91,106.00
2713.99,85.00
2715.07,95.00
2716.15,95.00
2717.22,138.00
2718.30,106.00
2719.38,85.00
2720.45,180.00
2721.53,159.00
2722.60,106.00
2723.68,106.00
2724.75,117.00
2725.82,127.00
2726.89,170.00
2727.97,117.00
2729.04,148.00
2730.11,127.00
2731.17,127.00
2732.24,138.00
2733.31,170.00
2734.38,159.00
2735.44,106.00
2736.51,116.00
2737.57,138.00
2738.64,127.00
2739.70,170.00
2740.76,169.00
2741.82,148.00
2742.89,159.00
2743.95,159.00
2745.01,106.00
2746.07,127.00
2747.12,117.00
2748.18,116.00
2749.24,159.00
2750.29,148.00
2751.35,106.00
2752.40,95.00
2753.46,53.00
2754.51,95.00
2755.57,116.00
2756.62,127.00
2757.67,127.00
2758.72,159.00
2759.77,148.00
2760.82,106.00
2761.87,127.00
2762.91,127.00
2763.96,191.00
2765.01,117.00
2766.05,84.00
2767.10,32.00
2768.14,75.00
2769.19,148.00
2770.23,148.00
2771.27,127.00
2772.31,127.00
2773.35,106.00
2774.40,64.00
2775.43,85.00
2776.47,85.00
2777.51,117.00
2778.55,159.00
2779.59,190.00
2780.62,180.00
2781.66,159.00
2782.69,127.00
2783.73,117.00
2784.76,149.00
2785.79,159.00
2786.82,149.00
2787.85,116.00
2788.89,64.00
2789.92,53.00
2790.94,84.00
2791.97,85.00
2793.00,95.00
2794.03,74.00
2795.05,95.00
2796.08,137.00
2797.11,95.00
2798.13,128.00
2799.15,137.00
2800.18,85.00
2801.20,116.00
2802.22,84.00
2803.24,149.00
2804.26,117.00
2805.28,85.00
2806.30,75.00
2807.32,84.00
2808.34,106.00
2809.35,106.00
2810.37,74.00
2811.39,106.00
2812.40,106.00
2813.41,127.00
2814.43,148.00
2815.44,116.00
2816.45,106.00
2817.46,84.00
2818.48,95.00
2819.49,149.00
2820.49,127.00
2821.50,85.00
2822.51,84.00
2823.52,85.00
2824.53,74.00
2825.53,95.00
2826.54,96.00
2827.54,116.00
2828.55,106.00
2829.55,127.00
2830.55,84.00
2831.55,95.00
2832.56,127.00
2833.56,127.00
2834.56,128.00
2835.56,106.00
2836.56,106.00
2837.55,117.00
2838.55,106.00
2839.55,64.00
2840.54,64.00
2841.54,105.00
2842.53,95.00
2843.53,84.00
2844.52,127.00
2845.51,63.00
2846.51,64.00
2847.50,53.00
2848.49,53.00
2849.48,53.00
2850.47,63.00
2851.46,64.00
2852.45,85.00
2853.43,159.00
2854.42,127.00
2855.41,106.00
2856.39,106.00
2857.38,74.00
2858.36,64.00
2859.34,127.00
2860.33,127.00
2861.31,137.00
2862.29,106.00
2863.27,85.00
2864.25,63.00
2865.23,64.00
2866.21,63.00
2867.19,63.00
2868.17,64.00
2869.14,85.00
2870.12,32.00
2871.09,10.00
2872.07,63.00
2873.04,106.00
2874.02,85.00
2874.99,127.00
2875.96,127.00
2876.93,117.00
2877.91,74.00
2878.88,10.00
2879.85,42.00
2880.82,84.00
2881.78,85.00
2882.75,64.00
2883.72,105.00
2884.69,95.00
2885.65,148.00
2886.62,106.00
2887.58,95.00
2888.55,74.00
2889.51,63.00
2890.47,32.00
2891.43,63.00
2892.39,117.00
2893.36,116.00
2894.31,137.00
2895.27,96.00
2896.23,85.00
2897.19,21.00
2898.15,32.00
2899.11,43.00
2900.06,74.00
2901.02,85.00
2901.97,85.00
2902.93,85.00
2903.88,43.00
2904.83,11.00
2905.79,42.00
2906.74,53.00
2907.69,32.00
2908.64,64.00
2909.59,64.00
2910.54,85.00
2911.49,84.00
2912.43,63.00
2913.38,63.00
2914.33,64.00
2915.27,85.00
2916.22,106.00
2917.16,43.00
2918.11,53.00
2919.05,21.00
2919.99,32.00
2920.94,0.00
2921.88,21.00
2922.82,42.00
2923.76,95.00
2924.70,84.00
2925.64,74.00
2926.58,127.00
2927.51,127.00
2928.45,74.00
2929.39,85.00
2930.32,96.00
2931.26,85.00
2932.19,42.00
2933.13,106.00
2934.06,74.00
2934.99,85.00
2935.92,64.00
2936.86,63.00
2937.79,85.00
2938.72,85.00
2939.65,64.00
2940.57,43.00
2941.50,52.00
2942.43,63.00
2943.36,42.00
2944.28,95.00
2945.21,74.00
2946.13,85.00
2947.06,42.00
2947.98,0.00
2948.91,0.00
2949.83,53.00
2950.75,64.00
2951.67,85.00
2952.59,64.00
2953.51,53.00
2954.43,53.00
2955.35,84.00
2956.27,75.00
2957.19,32.00
2958.10,74.00
2959.02,53.00
2959.94,10.00
2960.85,21.00
2961.77,21.00
2962.68,21.00
2963.59,0.00
2964.51,53.00
2965.42,43.00
2966.33,95.00
2967.24,127.00
2968.15,74.00
2969.06,53.00
2969.97,0.00
2970.88,32.00
2971.78,42.00
2972.69,0.00
2973.60,42.00
2974.50,75.00
2975.41,85.00
2976.31,64.00
2977.22,84.00
2978.12,63.00
2979.02,63.00
2979.93,63.00
2980.83,53.00
2981.73,-11.00
2982.63,10.00
2983.53,84.00
2984.43,63.00
2985.33,42.00
2986.22,85.00
2987.12,32.00
2988.02,42.00
2988.91,32.00
2989.81,11.00
2990.70,-21.00
2991.60,0.00
2992.49,63.00
2993.38,64.00
2994.28,10.00
2995.17,53.00
2996.06,42.00
2996.95,21.00
2997.84,74.00
2998.73,-11.00
2999.62,-21.00
3000.51,21.00
3001.40,-21.00
3002.28,21.00
3003.17,32.00
3004.05,-21.00
3004.94,21.00
3005.82,64.00
3006.71,75.00
3007.59,106.00
3008.47,63.00
3009.36,11.00
3010.24,32.00
3011.12,63.00
3012.00,74.00
3012.88,63.00
3013.76,43.00
3014.64,64.00
3015.51,85.00
3016.39,84.00
3017.27,74.00
3018.14,127.00
3019.02,84.00
3019.89,85.00
3020.77,43.00
3021.64,10.00
3022.52,42.00
3023.39,85.00
3024.26,84.00
3025.13,32.00
3026.00,-32.00
3026.87,0.00
3027.74,21.00
3028.61,53.00
3029.48,21.00
3030.35,64.00
3031.21,64.00
3032.08,42.00
3032.95,42.00
3033.81,42.00
3034.68,53.00
3035.54,64.00
3036.40,0.00
3037.27,10.00
3038.13,21.00
3038.99,21.00
3039.85,10.00
3040.71,21.00
3041.57,11.00
3042.43,11.00
3043.29,0.00
3044.15,0.00
3045.01,11.00
3045.86,63.00
3046.72,32.00
3047.58,53.00
3048.43,106.00
3049.29,63.00
3050.14,42.00
3050.99,42.00
3051.85,63.00
3052.70,0.00
3053.55,-21.00
3054.40,0.00
3055.25,31.00
3056.10,74.00
3056.95,32.00
3057.80,64.00
3058.65,43.00
3059.50,-11.00
3060.34,10.00
3061.19,64.00
3062.04,21.00
3062.88,64.00
3063.73,21.00
3064.57,0.00
3065.42,0.00
3066.26,-21.00
3067.10,0.00
3067.94,21.00
3068.78,42.00
3069.63,63.00
3070.47,52.00
3071.31,52.00
3072.14,21.00
3072.98,-21.00
3073.82,10.00
3074.66,32.00
3075.49,64.00
3076.33,31.00
3077.17,0.00
3078.00,32.00
3078.83,53.00
3079.67,22.00
3080.50,42.00
3081.33,74.00
3082.17,32.00
3083.00,21.00
3083.83,10.00
3084.66,42.00
3085.49,64.00
3086.32,84.00
3087.15,64.00
3087.97,21.00
3088.80,-22.00
3089.63,0.00
3090.46,53.00
3091.28,53.00
3092.11,21.00
3092.93,22.00
3093.75,32.00
3094.58,63.00
3095.40,43.00
3096.22,31.00
3097.05,11.00
3097.87,31.00
3098.69,43.00
3099.51,85.00
3100.33,74.00
3101.15,11.00
3101.96,63.00
3102.78,63.00
3103.60,53.00
3104.42,42.00
3105.23,22.00
3106.05,42.00
3106.86,42.00
3107.68,42.00
3108.49,0.00
3109.30,21.00
3110.12,31.00
3110.93,32.00
3111.74,10.00
3112.55,53.00
3113.36,74.00
3114.17,53.00
3114.98,52.00
3115.79,21.00
3116.60,42.00
3117.40,0.00
3118.21,21.00
3119.02,42.00
3119.82,0.00
3120.63,11.00
3121.43,0.00
3122.24,0.00
3123.04,0.00
3123.84,-32.00
3124.65,-43.00
3125.45,0.00
3126.25,42.00
3127.05,43.00
3127.85,11.00
3128.65,21.00
3129.45,21.00
3130.25,-32.00
3131.05,-10.00
3131.84,-10.00
3132.64,0.00
3133.44,-32.00
3134.23,32.00
3135.03,21.00
3135.82,53.00
3136.62,11.00
3137.41,0.00
3138.20,-21.00
3139.00,21.00
3139.79,32.00
3140.58,10.00
3141.37,84.00
3142.16,63.00
3142.95,42.00
3143.74,22.00
3144.53,32.00
3145.32,10.00
3146.10,0.00
3146.89,-43.00
3147.68,11.00
3148.46,64.00
3149.25,43.00
3150.03,0.00
3150.82,31.00
3151.60,0.00
3152.38,0.00
3153.17,21.00
3153.95,21.00
3154.73,0.00
3155.51,21.00
3156.29,53.00
3157.07,43.00
3157.85,53.00
3158.63,-11.00
3159.41,-11.00
3160.18,21.00
3160.96,21.00
3161.74,42.00
3162.51,21.00
3163.29,63.00
3164.06,43.00
3164.84,32.00
3165.61,0.00
3166.38,11.00
3167.16,53.00
3167.93,0.00
3168.70,10.00
3169.47,42.00
3170.24,21.00
3171.01,43.00
3171.78,53.00
3172.55,42.00
3173.32,10.00
3174.09,0.00
3174.85,106.00
3175.62,74.00
3176.39,42.00
3177.15,11.00
3177.92,0.00
3178.68,21.00
3179.45,21.00
3180.21,-21.00
3180.97,-10.00
3181.73,-42.00
3182.50,-32.00
3183.26,21.00
3184.02,21.00
3184.78,32.00
3185.54,11.00
3186.30,-21.00
3187.05,-21.00
3187.81,-21.00
3188.57,10.00
3189.33,42.00
3190.08,32.00
3190.84,32.00
3191.59,43.00
3192.35,43.00
3193.10,-21.00
3193.86,11.00
3194.61,84.00
3195.36,85.00
3196.12,21.00
3196.87,10.00
3197.62,0.00
3198.37,0.00
3199.12,32.00
3199.87,32.00
3200.62,42.00
3201.36,0.00
3202.11,-21.00
3202.86,21.00
3203.61,0.00
3204.35,-95.00
3205.10,-53.00
3205.84,-21.00
3206.59,0.00
3207.33,-21.00
3208.08,0.00
3208.82,21.00
3209.56,-21.00
3210.30,0.00
3211.05,43.00
3211.79,42.00
3212.53,32.00
3213.27,53.00
3214.01,42.00
3214.75,-21.00
3215.48,0.00
3216.22,53.00
3216.96,-11.00
3217.69,-32.00
3218.43,-21.00
3219.17,11.00
3219.90,43.00
3220.64,43.00
3221.37,21.00
3222.10,42.00
3222.84,10.00
3223.57,-10.00
3224.30,10.00
3225.03,21.00
3225.76,-10.00
3226.49,53.00
3227.22,-10.00
3227.95,0.00
3228.68,21.00
3229.41,0.00
3230.14,-53.00
3230.87,-10.00
3231.59,42.00
3232.32,74.00
3233.04,53.00
3233.77,42.00
3234.49,0.00
3235.22,0.00
3235.94,-11.00
3236.66,10.00
3237.39,21.00
3238.11,21.00
3238.83,84.00
3239.55,64.00
3240.27,21.00
3240.99,-11.00
3241.71,-85.00
3242.43,-32.00
3243.15,-64.00
3243.87,21.00
3244.58,32.00
3245.30,0.00
3246.02,11.00
3246.73,-53.00
3247.45,21.00
3248.16,53.00
3248.88,0.00
3249.59,53.00
3250.30,21.00
3251.01,-22.00
3251.73,0.00
3252.44,22.00
3253.15,-53.00
3253.86,-21.00
3254.57,43.00
3255.28,43.00
3255.99,-10.00
3256.70,21.00
3257.41,21.00
3258.11,42.00
3258.82,42.00
3259.53,31.00
3260.23,11.00
3260.94,53.00
3261.64,22.00
3262.35,-21.00
3263.05,43.00
3263.76,63.00
3264.46,42.00
3265.16,-53.00
3265.86,-21.00
3266.56,-21.00
3267.26,-11.00
3267.97,42.00
3268.67,21.00
3269.36,22.00
3270.06,21.00
3270.76,43.00
3271.46,10.00
3272.16,0.00
3272.85,0.00
