RamanShift,Intensity
180.91,365.00
183.74,455.00
186.56,604.00
189.39,837.00
192.21,1281.00
195.03,1906.00
197.84,2838.00
200.66,4024.00
203.47,5380.00
206.28,6840.00
209.09,8069.00
211.89,9308.00
214.70,10504.00
217.50,11309.00
220.30,11786.00
223.10,12103.00
225.89,12242.00
228.69,12527.00
231.48,12803.00
234.27,13120.00
237.05,13194.00
239.84,12983.00
242.62,12781.00
245.40,12697.00
248.18,12612.00
250.96,12305.00
253.73,12082.00
256.51,11839.00
259.28,11638.00
262.05,11499.00
264.81,11351.00
267.58,11172.00
270.34,11129.00
273.10,11055.00
275.86,10981.00
278.61,10790.00
281.37,10833.00
284.12,10970.00
286.87,10844.00
289.62,10896.00
292.36,10780.00
295.11,10822.00
297.85,10918.00
300.59,10780.00
303.33,10928.00
306.06,11087.00
308.80,11077.00
311.53,10981.00
314.26,10833.00
316.99,10695.00
319.71,10780.00
322.44,10896.00
325.16,10886.00
327.88,10886.00
330.59,10918.00
333.31,10854.00
336.02,10643.00
338.73,10600.00
341.44,10546.00
344.15,10578.00
346.86,10631.00
349.56,10568.00
352.26,10409.00
354.96,10557.00
357.66,10833.00
360.35,10738.00
363.05,10812.00
365.74,10938.00
368.43,10886.00
371.12,10896.00
373.80,10959.00
376.48,11056.00
379.17,11140.00
381.85,11108.00
384.52,11013.00
387.20,10981.00
389.87,11087.00
392.54,11161.00
395.21,11024.00
397.88,11087.00
400.55,11140.00
403.21,11076.00
405.87,11097.00
408.53,11108.00
411.19,11108.00
413.84,11002.00
416.50,10854.00
419.15,10886.00
421.80,10833.00
424.45,10748.00
427.10,10833.00
429.74,10896.00
432.38,10928.00
435.02,10886.00
437.66,10844.00
440.30,10928.00
442.93,10801.00
445.56,10780.00
448.19,10875.00
450.82,11013.00
453.45,10928.00
456.07,10864.00
458.70,10906.00
461.32,11023.00
463.94,11013.00
466.55,10939.00
469.17,10928.00
471.78,10992.00
474.39,11097.00
477.00,10992.00
479.61,10928.00
482.22,10875.00
484.82,10918.00
487.42,10960.00
490.02,10992.00
492.62,11086.00
495.21,10981.00
497.81,10896.00
500.40,10780.00
502.99,10631.00
505.58,10706.00
508.17,10557.00
510.75,10419.00
513.33,10525.00
515.91,10610.00
518.49,10621.00
521.07,10653.00
523.65,10600.00
526.22,10684.00
528.79,10705.00
531.36,10568.00
533.93,10578.00
536.49,10494.00
539.06,10451.00
541.62,10525.00
544.18,10441.00
546.74,10451.00
549.30,10547.00
551.85,10526.00
554.40,10484.00
556.95,10430.00
559.50,10335.00
562.05,10240.00
564.59,10335.00
567.14,10462.00
569.68,10335.00
572.22,10176.00
574.76,10133.00
577.29,10314.00
579.83,10346.00
582.36,10293.00
584.89,10091.00
587.42,10219.00
589.95,10335.00
592.47,10112.00
594.99,9953.00
597.52,9975.00
600.04,9890.00
602.55,9933.00
605.07,10018.00
607.58,9922.00
610.09,9795.00
612.60,9869.00
615.11,9859.00
617.62,9922.00
620.12,9858.00
622.63,9636.00
625.13,9721.00
627.63,9678.00
630.13,9647.00
632.62,9594.00
635.12,9615.00
637.61,9562.00
640.10,9573.00
642.59,9541.00
645.07,9488.00
647.56,9466.00
650.04,9499.00
652.52,9498.00
655.00,9350.00
657.48,9255.00
659.96,9403.00
662.43,9382.00
664.90,9318.00
667.37,9350.00
669.84,9265.00
672.31,9255.00
674.78,9340.00
677.24,9329.00
679.70,9255.00
682.16,9128.00
684.62,9138.00
687.08,9361.00
689.53,9244.00
691.98,9117.00
694.43,9224.00
696.88,9170.00
699.33,9139.00
701.78,9043.00
704.22,9022.00
706.66,9032.00
709.10,9064.00
711.54,9053.00
713.98,9085.00
716.42,9086.00
718.85,9043.00
721.28,9213.00
723.71,9414.00
726.14,9710.00
728.57,9859.00
730.99,9795.00
733.41,9625.00
735.83,9583.00
738.25,9446.00
740.67,9086.00
743.09,8789.00
745.50,8705.00
747.91,8556.00
750.33,8620.00
752.73,8513.00
755.14,8376.00
757.55,8461.00
759.95,8429.00
762.35,8291.00
764.75,8228.00
767.15,8271.00
769.55,8355.00
771.95,8323.00
774.34,8259.00
776.73,8408.00
779.12,8513.00
781.51,8408.00
783.90,8334.00
786.28,8291.00
788.67,8302.00
791.05,8355.00
793.43,8207.00
795.80,8164.00
798.18,8133.00
800.56,8143.00
802.93,8154.00
805.30,8005.00
807.67,8037.00
810.04,8037.00
812.40,7963.00
814.77,8016.00
817.13,8016.00
819.49,7868.00
821.85,7825.00
824.21,7699.00
826.57,7646.00
828.92,7719.00
831.27,7794.00
833.63,7719.00
835.98,7667.00
838.32,7741.00
840.67,7551.00
843.01,7572.00
845.36,7635.00
847.70,7656.00
850.04,7518.00
852.37,7529.00
854.71,7572.00
857.05,7582.00
859.38,7572.00
861.71,7550.00
864.04,7487.00
866.37,7465.00
868.69,7423.00
871.02,7254.00
873.34,7391.00
875.66,7445.00
877.98,7328.00
880.30,7232.00
882.62,7232.00
884.93,7158.00
887.24,7211.00
889.55,7274.00
891.86,7233.00
894.17,7106.00
896.48,7105.00
898.78,7190.00
901.09,7116.00
903.39,7020.00
905.69,7137.00
907.99,7106.00
910.28,7042.00
912.58,7021.00
914.87,6957.00
917.16,7020.00
919.45,7000.00
921.74,6947.00
924.03,6904.00
926.31,6894.00
928.60,6957.00
930.88,7106.00
933.16,7105.00
935.44,6914.00
937.72,6830.00
939.99,6915.00
942.26,6820.00
944.54,6841.00
946.81,6873.00
949.08,6904.00
951.34,6883.00
953.61,6778.00
955.87,6724.00
958.14,6703.00
960.40,6777.00
962.66,6766.00
964.92,6703.00
967.17,6682.00
969.43,6682.00
971.68,6692.00
973.93,6618.00
976.18,6555.00
978.43,6576.00
980.68,6522.00
982.92,6407.00
985.17,6290.00
987.41,6322.00
989.65,6279.00
991.89,6321.00
994.12,6438.00
996.36,6290.00
998.59,6237.00
1000.83,6163.00
1003.06,6141.00
1005.29,6153.00
1007.51,6195.00
1009.74,6290.00
1011.97,6353.00
1014.19,6300.00
1016.41,6269.00
1018.63,6237.00
1020.85,6216.00
1023.07,6269.00
1025.28,6333.00
1027.49,6247.00
1029.71,6131.00
1031.92,6110.00
1034.13,6195.00
1036.33,6141.00
1038.54,6078.00
1040.74,6026.00
1042.95,5983.00
1045.15,6025.00
1047.35,5951.00
1049.55,5983.00
1051.74,5941.00
1053.94,5930.00
1056.13,5982.00
1058.32,5951.00
1060.51,5972.00
1062.70,5951.00
1064.89,5867.00
1067.08,5792.00
1069.26,5845.00
1071.44,5909.00
1073.63,5855.00
1075.81,5898.00
1077.98,5941.00
1080.16,5824.00
1082.34,5920.00
1084.51,5919.00
1086.68,5802.00
1088.85,5781.00
1091.02,5739.00
1093.19,5707.00
1095.35,5707.00
1097.52,5644.00
1099.68,5549.00
1101.84,5665.00
1104.00,5750.00
1106.16,5623.00
1108.32,5633.00
1110.48,5729.00
1112.63,5771.00
1114.78,5591.00
1116.93,5559.00
1119.08,5612.00
1121.23,5686.00
1123.38,5601.00
1125.52,5432.00
1127.67,5400.00
1129.81,5464.00
1131.95,5400.00
1134.09,5464.00
1136.22,5453.00
1138.36,5358.00
1140.50,5273.00
1142.63,5294.00
1144.76,5432.00
1146.89,5421.00
1149.02,5284.00
1151.15,5231.00
1153.27,5189.00
1155.40,5316.00
1157.52,5273.00
1159.64,5210.00
1161.76,5178.00
1163.88,5199.00
1165.99,5188.00
1168.11,5210.00
1170.22,5242.00
1172.34,5200.00
1174.45,5179.00
1176.56,5115.00
1178.66,5136.00
1180.77,5167.00
1182.88,5147.00
1184.98,5072.00
1187.08,5083.00
1189.18,5136.00
1191.28,5157.00
1193.38,5051.00
1195.47,5051.00
1197.57,5030.00
1199.66,5041.00
1201.75,5083.00
1203.85,5093.00
1205.93,5051.00
1208.02,5062.00
1210.11,5083.00
1212.19,4988.00
1214.28,4966.00
1216.36,4966.00
1218.44,4988.00
1220.52,4892.00
1222.59,4882.00
1224.67,5019.00
1226.74,4966.00
1228.82,4924.00
1230.89,4935.00
1232.96,4955.00
1235.03,4903.00
1237.10,4850.00
1239.16,5009.00
1241.23,4903.00
1243.29,4840.00
1245.35,4882.00
1247.41,4924.00
1249.47,4818.00
1251.53,4786.00
1253.58,4797.00
1255.64,4860.00
1257.69,4797.00
1259.74,4670.00
1261.79,4617.00
1263.84,4607.00
1265.89,4660.00
1267.93,4723.00
1269.98,4691.00
1272.02,4670.00
1274.06,4607.00
1276.10,4543.00
1278.14,4543.00
1280.18,4564.00
1282.22,4585.00
1284.25,4595.00
1286.28,4521.00
1288.32,4521.00
1290.35,4522.00
1292.38,4490.00
1294.40,4447.00
1296.43,4405.00
1298.46,4448.00
1300.48,4532.00
1302.50,4596.00
1304.52,4511.00
1306.54,4448.00
1308.56,4405.00
1310.58,4384.00
1312.59,4415.00
1314.60,4532.00
1316.62,4670.00
1318.63,4575.00
1320.64,4532.00
1322.65,4607.00
1324.65,4659.00
1326.66,4723.00
1328.66,4755.00
1330.66,4734.00
1332.67,4776.00
1334.67,4850.00
1336.66,4755.00
1338.66,4712.00
1340.66,4606.00
1342.65,4511.00
1344.65,4416.00
1346.64,4352.00
1348.63,4310.00
1350.62,4341.00
1352.60,4363.00
1354.59,4363.00
1356.57,4268.00
1358.56,4331.00
1360.54,4447.00
1362.52,4405.00
1364.50,4278.00
1366.48,4204.00
1368.46,4204.00
1370.43,4246.00
1372.41,4235.00
1374.38,4183.00
1376.35,4119.00
1378.32,4151.00
1380.29,4204.00
1382.25,4172.00
1384.22,4140.00
1386.18,4151.00
1388.15,4151.00
1390.11,4098.00
1392.07,4087.00
1394.03,4098.00
1395.99,4077.00
1397.94,4141.00
1399.90,4077.00
1401.85,4034.00
1403.80,4077.00
1405.76,4055.00
1407.71,4045.00
1409.65,4055.00
1411.60,3982.00
1413.55,3950.00
1415.49,4077.00
1417.44,4045.00
1419.38,3960.00
1421.32,3939.00
1423.26,3897.00
1425.19,3843.00
1427.13,3844.00
1429.07,3886.00
1431.00,3971.00
1432.93,3940.00
1434.86,3844.00
1436.79,3802.00
1438.72,3812.00
1440.65,3865.00
1442.57,3833.00
1444.50,3812.00
1446.42,3801.00
1448.34,3801.00
1450.26,3738.00
1452.18,3897.00
1454.10,3855.00
1456.02,3664.00
1457.93,3632.00
1459.85,3801.00
1461.76,3802.00
1463.67,3675.00
1465.58,3707.00
1467.49,3759.00
1469.40,3685.00
1471.31,3611.00
1473.21,3654.00
1475.11,3642.00
1477.02,3590.00
1478.92,3632.00
1480.82,3643.00
1482.72,3611.00
1484.61,3611.00
1486.51,3548.00
1488.40,3495.00
1490.30,3558.00
1492.19,3590.00
1494.08,3568.00
1495.97,3590.00
1497.86,3622.00
1499.74,3505.00
1501.63,3473.00
1503.51,3473.00
1505.40,3368.00
1507.28,3452.00
1509.16,3431.00
1511.04,3452.00
1512.92,3462.00
1514.79,3442.00
1516.67,3495.00
1518.54,3516.00
1520.42,3399.00
1522.29,3357.00
1524.16,3484.00
1526.03,3462.00
1527.89,3420.00
1529.76,3421.00
1531.63,3431.00
1533.49,3410.00
1535.35,3431.00
1537.21,3409.00
1539.07,3293.00
1540.93,3209.00
1542.79,3230.00
1544.65,3356.00
1546.50,3421.00
1548.36,3410.00
1550.21,3389.00
1552.06,3357.00
1553.91,3356.00
1555.76,3293.00
1557.61,3209.00
1559.45,3272.00
1561.30,3303.00
1563.14,3283.00
1564.98,3262.00
1566.82,3187.00
1568.67,3209.00
1570.50,3187.00
1572.34,3198.00
1574.18,3251.00
1576.01,3219.00
1577.85,3166.00
1579.68,3092.00
1581.51,3124.00
1583.34,3145.00
1585.17,3166.00
1587.00,3219.00
1588.82,3208.00
1590.65,3156.00
1592.47,3124.00
1594.30,3166.00
1596.12,3156.00
1597.94,3177.00
1599.76,3134.00
1601.57,3102.00
1603.39,3092.00
1605.21,3081.00
1607.02,3060.00
1608.83,3039.00
1610.64,3018.00
1612.45,2954.00
1614.26,2881.00
1616.07,2891.00
1617.88,2870.00
1619.68,2933.00
1621.49,3007.00
1623.29,2902.00
1625.09,2763.00
1626.89,2785.00
1628.69,2891.00
1630.49,3008.00
1632.29,2965.00
1634.08,2859.00
1635.88,2806.00
1637.67,2870.00
1639.46,2901.00
1641.25,2891.00
1643.04,2902.00
1644.83,2828.00
1646.62,2859.00
1648.41,2901.00
1650.19,2848.00
1651.97,2859.00
1653.76,2785.00
1655.54,2732.00
1657.32,2742.00
1659.10,2742.00
1660.88,2796.00
1662.65,2785.00
1664.43,2743.00
1666.20,2679.00
1667.97,2669.00
1669.75,2710.00
1671.52,2754.00
1673.29,2732.00
1675.05,2690.00
1676.82,2775.00
1678.59,2732.00
1680.35,2668.00
1682.11,2701.00
1683.88,2700.00
1685.64,2658.00
1687.40,2648.00
1689.16,2626.00
1690.91,2541.00
1692.67,2636.00
1694.42,2573.00
1696.18,2499.00
1697.93,2616.00
1699.68,2690.00
1701.43,2584.00
1703.18,2520.00
1704.93,2446.00
1706.68,2467.00
1708.42,2446.00
1710.17,2468.00
1711.91,2457.00
1713.65,2436.00
1715.39,2393.00
1717.13,2372.00
1718.87,2393.00
1720.61,2478.00
1722.35,2499.00
1724.08,2393.00
1725.81,2341.00
1727.55,2329.00
1729.28,2350.00
1731.01,2435.00
1732.74,2403.00
1734.47,2372.00
1736.19,2446.00
1737.92,2446.00
1739.64,2457.00
1741.37,2499.00
1743.09,2393.00
1744.81,2361.00
1746.53,2414.00
1748.25,2330.00
1749.97,2276.00
1751.68,2319.00
1753.40,2330.00
1755.11,2308.00
1756.83,2256.00
1758.54,2266.00
1760.25,2361.00
1761.96,2287.00
1763.67,2192.00
1765.38,2245.00
1767.08,2213.00
1768.79,2234.00
1770.49,2266.00
1772.19,2287.00
1773.90,2223.00
1775.60,2287.00
1777.30,2330.00
1778.99,2245.00
1780.69,2234.00
1782.39,2223.00
1784.08,2192.00
1785.78,2118.00
1787.47,2139.00
1789.16,2234.00
1790.85,2224.00
1792.54,2181.00
1794.23,2161.00
1795.91,2160.00
1797.60,2171.00
1799.28,2118.00
1800.97,2149.00
1802.65,2118.00
1804.33,2128.00
1806.01,2097.00
1807.69,2139.00
1809.37,2129.00
1811.05,2107.00
1812.72,2107.00
1814.40,2055.00
1816.07,2023.00
1817.74,1991.00
1819.41,2097.00
1821.08,2128.00
1822.75,2118.00
1824.42,2161.00
1826.09,2086.00
1827.75,1980.00
1829.42,2054.00
1831.08,2139.00
1832.74,2107.00
1834.40,2086.00
1836.06,2076.00
1837.72,1970.00
1839.38,1981.00
1841.04,2023.00
1842.69,2033.00
1844.35,2022.00
1846.00,2002.00
1847.65,1969.00
1849.30,1981.00
1850.95,2044.00
1852.60,2044.00
1854.25,1969.00
1855.90,1895.00
1857.54,1906.00
1859.19,1959.00
1860.83,1980.00
1862.47,1906.00
1864.12,1906.00
1865.76,1884.00
1867.40,1927.00
1869.03,1970.00
1870.67,1895.00
1872.31,1790.00
1873.94,1768.00
1875.57,1832.00
1877.21,1906.00
1878.84,1853.00
1880.47,1832.00
1882.10,1853.00
1883.73,1789.00
1885.35,1790.00
1886.98,1800.00
1888.61,1843.00
1890.23,1832.00
1891.85,1768.00
1893.47,1694.00
1895.09,1737.00
1896.71,1789.00
1898.33,1790.00
1899.95,1810.00
1901.57,1843.00
1903.18,1758.00
1904.80,1715.00
1906.41,1684.00
1908.02,1715.00
1909.63,1736.00
1911.24,1747.00
1912.85,1726.00
1914.46,1704.00
1916.07,1736.00
1917.67,1674.00
1919.28,1610.00
1920.88,1631.00
1922.48,1747.00
1924.08,1758.00
1925.68,1758.00
1927.28,1779.00
1928.88,1684.00
1930.48,1726.00
1932.07,1779.00
1933.67,1715.00
1935.26,1620.00
1936.86,1652.00
1938.45,1641.00
1940.04,1631.00
1941.63,1684.00
1943.22,1631.00
1944.80,1589.00
1946.39,1620.00
1947.98,1620.00
1949.56,1609.00
1951.14,1652.00
1952.73,1610.00
1954.31,1577.00
1955.89,1578.00
1957.47,1578.00
1959.05,1546.00
1960.62,1546.00
1962.20,1620.00
1963.77,1674.00
1965.35,1620.00
1966.92,1535.00
1968.49,1546.00
1970.06,1610.00
1971.63,1642.00
1973.20,1588.00
1974.77,1588.00
1976.34,1567.00
1977.90,1567.00
1979.47,1589.00
1981.03,1567.00
1982.59,1536.00
1984.15,1620.00
1985.71,1652.00
1987.27,1588.00
1988.83,1514.00
1990.39,1535.00
1991.94,1493.00
1993.50,1451.00
1995.05,1515.00
1996.61,1546.00
1998.16,1556.00
1999.71,1568.00
2001.26,1525.00
2002.81,1504.00
2004.36,1536.00
2005.91,1546.00
2007.45,1546.00
2009.00,1525.00
2010.54,1546.00
2012.08,1557.00
2013.62,1567.00
2015.17,1557.00
2016.71,1504.00
2018.24,1504.00
2019.78,1524.00
2021.32,1504.00
2022.85,1567.00
2024.39,1546.00
2025.92,1483.00
2027.46,1408.00
2028.99,1419.00
2030.52,1419.00
2032.05,1440.00
2033.58,1440.00
2035.10,1429.00
2036.63,1461.00
2038.16,1419.00
2039.68,1440.00
2041.21,1451.00
2042.73,1451.00
2044.25,1397.00
2045.77,1356.00
2047.29,1419.00
2048.81,1440.00
2050.33,1408.00
2051.84,1377.00
2053.36,1440.00
2054.87,1440.00
2056.39,1398.00
2057.90,1430.00
2059.41,1398.00
2060.92,1313.00
2062.43,1334.00
2063.94,1366.00
2065.45,1377.00
2066.95,1345.00
2068.46,1398.00
2069.96,1419.00
2071.47,1366.00
2072.97,1324.00
2074.47,1282.00
2075.97,1282.00
2077.47,1292.00
2078.97,1292.00
2080.47,1303.00
2081.96,1271.00
2083.46,1281.00
2084.95,1303.00
2086.45,1302.00
2087.94,1282.00
2089.43,1302.00
2090.92,1260.00
2092.41,1239.00
2093.90,1229.00
2095.39,1281.00
2096.88,1313.00
2098.36,1292.00
2099.85,1239.00
2101.33,1165.00
2102.81,1165.00
2104.30,1197.00
2105.78,1155.00
2107.26,1123.00
2108.74,1165.00
2110.21,1165.00
2111.69,1196.00
2113.17,1228.00
2114.64,1186.00
2116.12,1165.00
2117.59,1207.00
2119.06,1165.00
2120.53,1176.00
2122.00,1154.00
2123.47,1164.00
2124.94,1154.00
2126.41,1133.00
2127.87,1080.00
2129.34,1123.00
2130.80,1133.00
2132.27,1102.00
2133.73,1059.00
2135.19,1112.00
2136.65,1080.00
2138.11,1101.00
2139.57,1122.00
2141.03,1143.00
2142.48,1059.00
2143.94,1101.00
2145.39,1102.00
2146.85,1123.00
2148.30,1101.00
2149.75,1112.00
2151.20,1112.00
2152.65,1133.00
2154.10,1112.00
2155.55,1027.00
2157.00,1037.00
2158.44,1049.00
2159.89,1059.00
2161.33,1059.00
2162.78,1101.00
2164.22,1102.00
2165.66,1059.00
2167.10,1027.00
2168.54,1080.00
2169.98,1081.00
2171.42,1080.00
2172.85,1070.00
2174.29,1059.00
2175.72,1069.00
2177.16,1038.00
2178.59,1049.00
2180.02,1048.00
2181.45,1059.00
2182.88,1048.00
2184.31,1070.00
2185.74,1059.00
2187.17,1037.00
2188.59,1027.00
2190.02,1070.00
2191.44,1027.00
2192.87,1038.00
2194.29,1038.00
2195.71,985.00
2197.13,1016.00
2198.55,1017.00
2199.97,1070.00
2201.39,1037.00
2202.81,985.00
2204.22,953.00
2205.64,974.00
2207.05,995.00
2208.46,974.00
2209.88,921.00
2211.29,953.00
2212.70,964.00
2214.11,995.00
2215.52,985.00
2216.92,995.00
2218.33,996.00
2219.74,975.00
2221.14,974.00
2222.54,921.00
2223.95,900.00
2225.35,932.00
2226.75,964.00
2228.15,963.00
2229.55,963.00
2230.95,984.00
2232.35,974.00
2233.74,974.00
2235.14,931.00
2236.53,932.00
2237.93,911.00
2239.32,921.00
2240.71,953.00
2242.10,953.00
2243.49,910.00
2244.88,900.00
2246.27,922.00
2247.66,953.00
2249.04,932.00
2250.43,932.00
2251.81,911.00
2253.20,921.00
2254.58,910.00
2255.96,878.00
2257.34,837.00
2258.72,868.00
2260.10,910.00
2261.48,879.00
2262.86,868.00
2264.23,773.00
2265.61,720.00
2266.98,794.00
2268.36,826.00
2269.73,847.00
2271.10,868.00
2272.47,826.00
2273.84,826.00
2275.21,805.00
2276.58,762.00
2277.95,763.00
2279.31,763.00
2280.68,826.00
2282.05,847.00
2283.41,868.00
2284.77,795.00
2286.13,741.00
2287.50,783.00
2288.86,762.00
2290.22,815.00
2291.57,784.00
2292.93,763.00
2294.29,731.00
2295.64,773.00
2297.00,763.00
2298.35,741.00
2299.71,815.00
2301.06,794.00
2302.41,804.00
2303.76,816.00
2305.11,794.00
2306.46,815.00
2307.81,762.00
2309.15,752.00
2310.50,773.00
2311.84,783.00
2313.19,783.00
2314.53,751.00
2315.87,752.00
2317.22,784.00
2318.56,804.00
2319.90,720.00
2321.24,741.00
2322.57,721.00
2323.91,741.00
2325.25,709.00
2326.58,720.00
2327.92,720.00
2329.25,742.00
2330.58,773.00
2331.91,773.00
2333.25,699.00
2334.58,709.00
2335.90,763.00
2337.23,763.00
2338.56,752.00
2339.89,688.00
2341.21,720.00
2342.54,762.00
2343.86,709.00
2345.19,667.00
2346.51,720.00
2347.83,741.00
2349.15,763.00
2350.47,730.00
2351.79,763.00
2353.11,720.00
2354.42,656.00
2355.74,582.00
2357.06,646.00
2358.37,710.00
2359.68,752.00
2361.00,699.00
2362.31,656.00
2363.62,646.00
2364.93,657.00
2366.24,614.00
2367.55,614.00
2368.86,646.00
2370.16,668.00
2371.47,657.00
2372.77,656.00
2374.08,614.00
2375.38,646.00
2376.68,624.00
2377.98,657.00
2379.29,667.00
2380.59,625.00
2381.88,656.00
2383.18,657.00
2384.48,625.00
2385.78,635.00
2387.07,593.00
2388.37,604.00
2389.66,657.00
2390.95,625.00
2392.25,582.00
2393.54,593.00
2394.83,614.00
2396.12,604.00
2397.41,614.00
2398.70,636.00
2399.98,603.00
2401.27,614.00
2402.55,604.00
2403.84,582.00
2405.12,571.00
2406.41,635.00
2407.69,646.00
2408.97,551.00
2410.25,561.00
2411.53,583.00
2412.81,551.00
2414.09,593.00
2415.36,593.00
2416.64,593.00
2417.91,646.00
2419.19,614.00
2420.46,635.00
2421.74,604.00
2423.01,550.00
2424.28,593.00
2425.55,593.00
2426.82,572.00
2428.09,519.00
2429.36,593.00
2430.62,572.00
2431.89,561.00
2433.15,529.00
2434.42,519.00
2435.68,550.00
2436.94,529.00
2438.21,551.00
2439.47,593.00
2440.73,551.00
2441.99,561.00
2443.25,550.00
2444.51,541.00
2445.76,518.00
2447.02,530.00
2448.27,529.00
2449.53,582.00
2450.78,550.00
2452.03,519.00
2453.29,550.00
2454.54,551.00
2455.79,551.00
2457.04,572.00
2458.29,530.00
2459.54,509.00
2460.78,519.00
2462.03,529.00
2463.27,540.00
2464.52,466.00
2465.76,487.00
2467.01,551.00
2468.25,541.00
2469.49,466.00
2470.73,498.00
2471.97,508.00
2473.21,476.00
2474.45,487.00
2475.69,487.00
2476.92,508.00
2478.16,456.00
2479.39,487.00
2480.63,445.00
2481.86,466.00
2483.09,519.00
2484.32,508.00
2485.56,530.00
2486.79,509.00
2488.02,529.00
2489.24,529.00
2490.47,508.00
2491.70,487.00
2492.92,508.00
2494.15,509.00
2495.37,498.00
2496.60,456.00
2497.82,466.00
2499.04,529.00
2500.26,508.00
2501.48,519.00
2502.70,476.00
2503.92,509.00
2505.14,509.00
2506.36,445.00
2507.58,445.00
2508.79,434.00
2510.01,435.00
2511.22,445.00
2512.43,424.00
2513.64,392.00
2514.86,487.00
2516.07,530.00
2517.28,508.00
2518.49,487.00
2519.70,497.00
2520.90,466.00
2522.11,466.00
2523.32,423.00
2524.52,445.00
2525.73,498.00
2526.93,455.00
2528.13,413.00
2529.33,434.00
2530.54,444.00
2531.74,444.00
2532.94,476.00
2534.14,487.00
2535.33,476.00
2536.53,445.00
2537.73,455.00
2538.92,455.00
2540.12,435.00
2541.31,423.00
2542.51,455.00
2543.70,423.00
2544.89,444.00
2546.08,402.00
2547.27,360.00
2548.46,382.00
2549.65,413.00
2550.84,423.00
2552.03,424.00
2553.21,413.00
2554.40,466.00
2555.58,371.00
2556.77,403.00
2557.95,392.00
2559.13,339.00
2560.31,338.00
2561.50,381.00
2562.68,371.00
2563.85,403.00
2565.03,413.00
2566.21,360.00
2567.39,328.00
2568.56,360.00
2569.74,423.00
2570.91,402.00
2572.09,339.00
2573.26,360.00
2574.43,371.00
2575.61,360.00
2576.78,402.00
2577.95,392.00
2579.12,381.00
2580.29,392.00
2581.45,381.00
2582.62,329.00
2583.79,329.00
2584.95,339.00
2586.12,350.00
2587.28,360.00
2588.44,328.00
2589.61,360.00
2590.77,403.00
2591.93,381.00
2593.09,381.00
2594.25,350.00
2595.41,350.00
2596.56,403.00
2597.72,370.00
2598.88,402.00
2600.03,423.00
2601.19,339.00
2602.34,328.00
2603.50,339.00
2604.65,349.00
2605.80,382.00
2606.95,317.00
2608.10,328.00
2609.25,339.00
2610.40,318.00
2611.55,329.00
2612.70,339.00
2613.84,339.00
2614.99,318.00
2616.13,339.00
2617.28,339.00
2618.42,328.00
2619.56,392.00
2620.71,392.00
2621.85,360.00
2622.99,339.00
2624.13,318.00
2625.27,349.00
2626.40,370.00
2627.54,286.00
2628.68,339.00
2629.81,317.00
2630.95,307.00
2632.08,339.00
2633.22,339.00
2634.35,318.00
2635.48,360.00
2636.61,339.00
2637.74,296.00
2638.87,328.00
2640.00,339.00
2641.13,317.00
2642.26,318.00
2643.39,296.00
2644.51,328.00
2645.64,339.00
2646.76,297.00
2647.89,318.00
2649.01,328.00
2650.13,318.00
2651.25,297.00
2652.38,275.00
2653.50,254.00
2654.62,285.00
2655.73,286.00
2656.85,296.00
2657.97,297.00
2659.09,350.00
2660.20,339.00
2661.32,349.00
2662.43,328.00
2663.55,286.00
2664.66,265.00
2665.77,275.00
2666.88,265.00
2667.99,276.00
2669.10,275.00
2670.21,254.00
2671.32,265.00
2672.43,286.00
2673.54,265.00
2674.64,264.00
2675.75,255.00
2676.85,254.00
2677.96,286.00
2679.06,244.00
2680.16,307.00
2681.26,339.00
2682.37,275.00
2683.47,275.00
2684.57,339.00
2685.66,285.00
2686.76,254.00
2687.86,286.00
2688.96,264.00
2690.05,254.00
2691.15,297.00
2692.24,297.00
2693.34,296.00
2694.43,307.00
2695.52,307.00
2696.62,286.00
2697.71,318.00
2698.80,318.00
2699.89,264.00
2700.98,276.00
2702.06,297.00
2703.15,297.00
2704.24,276.00
2705.32,254.00
2706.41,286.00
2707.49,296.00
2708.58,244.00
2709.66,233.00
2710.74,296.00
2711.83,318.00
2712.91,254.00
2713.99,222.00
2715.07,254.00
2716.15,286.00
2717.22,286.00
2718.30,286.00
2719.38,212.00
2720.45,222.00
2721.53,244.00
2722.60,243.00
2723.68,254.00
2724.75,244.00
2725.82,254.00
2726.89,275.00
2727.97,296.00
2729.04,265.00
2730.11,254.00
2731.17,243.00
2732.24,212.00
2733.31,212.00
2734.38,211.00
2735.44,243.00
2736.51,223.00
2737.57,265.00
2738.64,265.00
2739.70,275.00
2740.76,243.00
2741.82,255.00
2742.89,286.00
2743.95,286.00
2745.01,254.00
2746.07,212.00
2747.12,222.00
2748.18,243.00
2749.24,223.00
2750.29,190.00
2751.35,212.00
2752.40,212.00
2753.46,201.00
2754.51,212.00
2755.57,233.00
2756.62,222.00
2757.67,255.00
2758.72,254.00
2759.77,191.00
2760.82,211.00
2761.87,223.00
2762.91,201.00
2763.96,223.00
2765.01,297.00
2766.05,233.00
2767.10,191.00
2768.14,180.00
2769.19,190.00
2770.23,202.00
2771.27,254.00
2772.31,233.00
2773.35,191.00
2774.40,169.00
2775.43,191.00
2776.47,191.00
2777.51,201.00
2778.55,233.00
2779.59,265.00
2780.62,286.00
2781.66,265.00
2782.69,244.00
2783.73,212.00
2784.76,212.00
2785.79,180.00
2786.82,201.00
2787.85,201.00
2788.89,190.00
2789.92,211.00
2790.94,127.00
2791.97,190.00
2793.00,255.00
2794.03,201.00
2795.05,127.00
2796.08,138.00
2797.11,159.00
2798.13,180.00
2799.15,201.00
2800.18,169.00
2801.20,190.00
2802.22,222.00
2803.24,191.00
2804.26,180.00
2805.28,180.00
2806.30,190.00
2807.32,212.00
2808.34,244.00
2809.35,190.00
2810.37,159.00
2811.39,116.00
2812.40,180.00
2813.41,201.00
2814.43,212.00
2815.44,212.00
2816.45,233.00
2817.46,201.00
2818.48,190.00
2819.49,212.00
2820.49,169.00
2821.50,191.00
2822.51,233.00
2823.52,233.00
2824.53,254.00
2825.53,233.00
2826.54,180.00
2827.54,159.00
2828.55,148.00
2829.55,148.00
2830.55,180.00
2831.55,191.00
2832.56,232.00
2833.56,212.00
2834.56,159.00
2835.56,148.00
2836.56,148.00
2837.55,190.00
2838.55,149.00
2839.55,169.00
2840.54,180.00
2841.54,159.00
2842.53,116.00
2843.53,116.00
2844.52,127.00
2845.51,137.00
2846.51,137.00
2847.50,169.00
2848.49,233.00
2849.48,201.00
2850.47,170.00
2851.46,148.00
2852.45,149.00
2853.43,148.00
2854.42,190.00
2855.41,212.00
2856.39,180.00
2857.38,170.00
2858.36,201.00
2859.34,212.00
2860.33,127.00
2861.31,170.00
2862.29,159.00
2863.27,148.00
2864.25,191.00
2865.23,180.00
2866.21,127.00
2867.19,158.00
2868.17,148.00
2869.14,85.00
2870.12,180.00
2871.09,191.00
2872.07,180.00
2873.04,127.00
2874.02,127.00
2874.99,170.00
2875.96,180.00
2876.93,180.00
2877.91,169.00
2878.88,127.00
2879.85,159.00
2880.82,149.00
2881.78,149.00
2882.75,169.00
2883.72,201.00
2884.69,138.00
2885.65,148.00
2886.62,170.00
2887.58,127.00
2888.55,85.00
2889.51,138.00
2890.47,148.00
2891.43,180.00
2892.39,211.00
2893.36,148.00
2894.31,148.00
2895.27,127.00
2896.23,169.00
2897.19,170.00
2898.15,128.00
2899.11,127.00
2900.06,138.00
2901.02,137.00
2901.97,191.00
2902.93,191.00
2903.88,170.00
2904.83,127.00
2905.79,190.00
2906.74,159.00
2907.69,127.00
2908.64,170.00
2909.59,201.00
2910.54,170.00
2911.49,138.00
2912.43,127.00
2913.38,127.00
2914.33,169.00
2915.27,169.00
2916.22,190.00
2917.16,180.00
2918.11,159.00
2919.05,64.00
2919.99,106.00
2920.94,191.00
2921.88,180.00
2922.82,117.00
2923.76,148.00
2924.70,159.00
2925.64,170.00
2926.58,233.00
2927.51,201.00
2928.45,202.00
2929.39,158.00
2930.32,170.00
2931.26,190.00
2932.19,159.00
2933.13,127.00
2934.06,180.00
2934.99,180.00
2935.92,201.00
2936.86,190.00
2937.79,159.00
2938.72,127.00
2939.65,127.00
2940.57,148.00
2941.50,159.00
2942.43,127.00
2943.36,106.00
2944.28,116.00
2945.21,127.00
2946.13,190.00
2947.06,222.00
2947.98,170.00
2948.91,190.00
2949.83,148.00
2950.75,127.00
2951.67,127.00
2952.59,169.00
2953.51,159.00
2954.43,159.00
2955.35,191.00
2956.27,117.00
2957.19,127.00
2958.10,212.00
2959.02,159.00
2959.94,117.00
2960.85,117.00
2961.77,53.00
2962.68,32.00
2963.59,42.00
2964.51,85.00
2965.42,63.00
2966.33,64.00
2967.24,127.00
2968.15,117.00
2969.06,117.00
2969.97,106.00
2970.88,106.00
2971.78,127.00
2972.69,117.00
2973.60,106.00
2974.50,74.00
2975.41,116.00
2976.31,128.00
2977.22,96.00
2978.12,148.00
2979.02,159.00
2979.93,116.00
2980.83,117.00
2981.73,105.00
2982.63,85.00
2983.53,95.00
2984.43,138.00
2985.33,117.00
2986.22,84.00
2987.12,138.00
2988.02,159.00
2988.91,116.00
2989.81,85.00
2990.70,53.00
2991.60,63.00
2992.49,96.00
2993.38,64.00
2994.28,116.00
2995.17,95.00
2996.06,96.00
2996.95,159.00
2997.84,116.00
2998.73,43.00
2999.62,74.00
3000.51,95.00
3001.40,43.00
3002.28,63.00
3003.17,138.00
3004.05,85.00
3004.94,64.00
3005.82,95.00
3006.71,63.00
3007.59,43.00
3008.47,64.00
3009.36,95.00
3010.24,42.00
3011.12,31.00
3012.00,117.00
3012.88,106.00
3013.76,42.00
3014.64,53.00
3015.51,85.00
3016.39,85.00
3017.27,84.00
3018.14,42.00
3019.02,74.00
3019.89,127.00
3020.77,148.00
3021.64,127.00
3022.52,116.00
3023.39,42.00
3024.26,11.00
3025.13,74.00
3026.00,74.00
3026.87,64.00
3027.74,42.00
3028.61,42.00
3029.48,64.00
3030.35,117.00
3031.21,106.00
3032.08,85.00
3032.95,85.00
3033.81,74.00
3034.68,85.00
3035.54,84.00
3036.40,63.00
3037.27,42.00
3038.13,64.00
3038.99,85.00
3039.85,148.00
3040.71,106.00
3041.57,85.00
3042.43,42.00
3043.29,21.00
3044.15,0.00
3045.01,32.00
3045.86,64.00
3046.72,74.00
3047.58,42.00
3048.43,63.00
3049.29,95.00
3050.14,64.00
3050.99,52.00
3051.85,42.00
3052.70,22.00
3053.55,22.00
3054.40,10.00
3055.25,21.00
3056.10,74.00
3056.95,74.00
3057.80,42.00
3058.65,53.00
3059.50,42.00
3060.34,84.00
3061.19,64.00
3062.04,95.00
3062.88,84.00
3063.73,74.00
3064.57,95.00
3065.42,106.00
3066.26,116.00
3067.10,127.00
3067.94,117.00
3068.78,95.00
3069.63,53.00
3070.47,0.00
3071.31,53.00
3072.14,64.00
3072.98,85.00
3073.82,106.00
3074.66,42.00
3075.49,21.00
3076.33,75.00
3077.17,95.00
3078.00,85.00
3078.83,84.00
3079.67,63.00
3080.50,32.00
3081.33,63.00
3082.17,42.00
3083.00,64.00
3083.83,106.00
3084.66,95.00
3085.49,31.00
3086.32,74.00
3087.15,42.00
3087.97,32.00
3088.80,42.00
3089.63,53.00
3090.46,32.00
3091.28,64.00
3092.11,64.00
3092.93,105.00
3093.75,170.00
3094.58,138.00
3095.40,32.00
3096.22,53.00
3097.05,53.00
3097.87,84.00
3098.69,74.00
3099.51,53.00
3100.33,84.00
3101.15,75.00
3101.96,106.00
3102.78,85.00
3103.60,53.00
3104.42,42.00
3105.23,74.00
3106.05,42.00
3106.86,53.00
3107.68,31.00
3108.49,0.00
3109.30,11.00
3110.12,10.00
3110.93,43.00
3111.74,85.00
3112.55,74.00
3113.36,0.00
3114.17,21.00
3114.98,43.00
3115.79,53.00
3116.60,64.00
3117.40,53.00
3118.21,0.00
3119.02,0.00
3119.82,0.00
3120.63,0.00
3121.43,21.00
3122.24,32.00
3123.04,53.00
3123.84,106.00
3124.65,84.00
3125.45,95.00
3126.25,53.00
3127.05,53.00
3127.85,43.00
3128.65,63.00
3129.45,85.00
3130.25,32.00
3131.05,63.00
3131.84,74.00
3132.64,53.00
3133.44,53.00
3134.23,43.00
3135.03,10.00
3135.82,64.00
3136.62,31.00
3137.41,21.00
3138.20,21.00
3139.00,43.00
3139.79,43.00
3140.58,11.00
3141.37,21.00
3142.16,84.00
3142.95,85.00
3143.74,85.00
3144.53,42.00
3145.32,0.00
3146.10,43.00
3146.89,74.00
3147.68,22.00
3148.46,-11.00
3149.25,0.00
3150.03,0.00
3150.82,42.00
3151.60,10.00
3152.38,53.00
3153.17,74.00
3153.95,42.00
3154.73,53.00
3155.51,43.00
3156.29,-11.00
3157.07,63.00
3157.85,74.00
3158.63,53.00
3159.41,42.00
3160.18,42.00
3160.96,42.00
3161.74,64.00
3162.51,42.00
3163.29,43.00
3164.06,21.00
3164.84,53.00
3165.61,53.00
3166.38,21.00
3167.16,22.00
3167.93,63.00
3168.70,0.00
3169.47,43.00
3170.24,85.00
3171.01,74.00
3171.78,53.00
3172.55,42.00
3173.32,95.00
3174.09,85.00
3174.85,64.00
3175.62,21.00
3176.39,63.00
3177.15,64.00
3177.92,31.00
3178.68,53.00
3179.45,21.00
3180.21,74.00
3180.97,64.00
3181.73,63.00
3182.50,85.00
3183.26,63.00
3184.02,0.00
3184.78,21.00
3185.54,53.00
3186.30,42.00
3187.05,64.00
3187.81,74.00
3188.57,42.00
3189.33,64.00
3190.08,22.00
3190.84,64.00
3191.59,74.00
3192.35,32.00
3193.10,0.00
3193.86,43.00
3194.61,42.00
3195.36,64.00
3196.12,43.00
3196.87,43.00
3197.62,-53.00
3198.37,-32.00
3199.12,21.00
3199.87,53.00
3200.62,21.00
3201.36,21.00
3202.11,43.00
3202.86,95.00
3203.61,106.00
3204.35,64.00
3205.10,64.00
3205.84,21.00
3206.59,21.00
3207.33,53.00
3208.08,0.00
3208.82,53.00
3209.56,74.00
3210.30,85.00
3211.05,95.00
3211.79,74.00
3212.53,32.00
3213.27,53.00
3214.01,53.00
3214.75,22.00
3215.48,0.00
3216.22,21.00
3216.96,43.00
3217.69,32.00
3218.43,22.00
3219.17,85.00
3219.90,95.00
3220.64,64.00
3221.37,64.00
3222.10,22.00
3222.84,21.00
3223.57,53.00
3224.30,31.00
3225.03,21.00
3225.76,0.00
3226.49,11.00
3227.22,-10.00
3227.95,21.00
3228.68,42.00
3229.41,63.00
3230.14,31.00
3230.87,-10.00
3231.59,53.00
3232.32,42.00
3233.04,10.00
3233.77,11.00
3234.49,10.00
3235.22,-10.00
3235.94,0.00
3236.66,0.00
3237.39,-43.00
3238.11,0.00
3238.83,21.00
3239.55,31.00
3240.27,53.00
3240.99,10.00
3241.71,85.00
3242.43,64.00
3243.15,0.00
3243.87,0.00
3244.58,0.00
3245.30,10.00
3246.02,0.00
3246.73,22.00
3247.45,63.00
3248.16,63.00
3248.88,21.00
3249.59,63.00
3250.30,63.00
3251.01,53.00
3251.73,21.00
3252.44,0.00
3253.15,22.00
3253.86,32.00
3254.57,22.00
3255.28,43.00
3255.99,32.00
3256.70,22.00
3257.41,21.00
3258.11,11.00
3258.82,43.00
3259.53,42.00
3260.23,31.00
3260.94,21.00
3261.64,32.00
3262.35,53.00
3263.05,53.00
3263.76,53.00
3264.46,21.00
3265.16,21.00
3265.86,10.00
3266.56,32.00
3267.26,-10.00
3267.97,32.00
3268.67,42.00
3269.36,-21.00
3270.06,21.00
3270.76,32.00
3271.46,10.00
3272.16,0.00
3272.85,0.00
