RamanShift,Intensity
180.91,291.00
183.74,402.00
186.56,413.00
189.39,561.00
192.21,816.00
195.03,1123.00
197.84,1567.00
200.66,2171.00
203.47,2806.00
206.28,3473.00
209.09,4141.00
211.89,4691.00
214.70,5147.00
217.50,5592.00
220.30,5761.00
223.10,5856.00
225.89,6025.00
228.69,6131.00
231.48,6226.00
234.27,6290.00
237.05,6364.00
239.84,6385.00
242.62,6353.00
245.40,6353.00
248.18,6174.00
250.96,6057.00
253.73,6088.00
256.51,6174.00
259.28,6067.00
262.05,5930.00
264.81,5856.00
267.58,5761.00
270.34,5962.00
273.10,5930.00
275.86,5686.00
278.61,5644.00
281.37,5708.00
284.12,5761.00
286.87,5728.00
289.62,5655.00
292.36,5697.00
295.11,5718.00
297.85,5655.00
300.59,5687.00
303.33,5729.00
306.06,5739.00
308.80,5845.00
311.53,5867.00
314.26,5750.00
316.99,5718.00
319.71,5623.00
322.44,5633.00
325.16,5697.00
327.88,5644.00
330.59,5602.00
333.31,5601.00
336.02,5612.00
338.73,5601.00
341.44,5612.00
344.15,5687.00
346.86,5634.00
349.56,5548.00
352.26,5559.00
354.96,5665.00
357.66,5559.00
360.35,5581.00
363.05,5613.00
365.74,5654.00
368.43,5686.00
371.12,5707.00
373.80,5687.00
376.48,5771.00
379.17,5814.00
381.85,5877.00
384.52,5951.00
387.20,5898.00
389.87,5813.00
392.54,5866.00
395.21,5919.00
397.88,5898.00
400.55,5845.00
403.21,5919.00
405.87,5803.00
408.53,5782.00
411.19,5718.00
413.84,5655.00
416.50,5718.00
419.15,5740.00
421.80,5750.00
424.45,5750.00
427.10,5760.00
429.74,5782.00
432.38,5580.00
435.02,5570.00
437.66,5761.00
440.30,5814.00
442.93,5782.00
445.56,5761.00
448.19,5771.00
450.82,5813.00
453.45,5792.00
456.07,5792.00
458.70,5792.00
461.32,5782.00
463.94,5813.00
466.55,5792.00
469.17,5676.00
471.78,5676.00
474.39,5782.00
477.00,5739.00
479.61,5750.00
482.22,5782.00
484.82,5686.00
487.42,5728.00
490.02,5761.00
492.62,5782.00
495.21,5793.00
497.81,5782.00
500.40,5707.00
502.99,5665.00
505.58,5580.00
508.17,5570.00
510.75,5644.00
513.33,5634.00
515.91,5496.00
518.49,5422.00
521.07,5432.00
523.65,5422.00
526.22,5390.00
528.79,5337.00
531.36,5422.00
533.93,5496.00
536.49,5527.00
539.06,5422.00
541.62,5411.00
544.18,5475.00
546.74,5401.00
549.30,5507.00
551.85,5570.00
554.40,5517.00
556.95,5506.00
559.50,5538.00
562.05,5411.00
564.59,5358.00
567.14,5432.00
569.68,5390.00
572.22,5316.00
574.76,5316.00
577.29,5326.00
579.83,5295.00
582.36,5305.00
584.89,5326.00
587.42,5252.00
589.95,5146.00
592.47,5232.00
594.99,5284.00
597.52,5252.00
600.04,5168.00
602.55,5168.00
605.07,5115.00
607.58,5083.00
610.09,5156.00
612.60,5178.00
615.11,5167.00
617.62,5210.00
620.12,5147.00
622.63,5009.00
625.13,4955.00
627.63,4967.00
630.13,5051.00
632.62,5020.00
635.12,5009.00
637.61,4903.00
640.10,4776.00
642.59,4839.00
645.07,4733.00
647.56,4734.00
650.04,4850.00
652.52,4924.00
655.00,4977.00
657.48,4913.00
659.96,4924.00
662.43,4945.00
664.90,4754.00
667.37,4712.00
669.84,4786.00
672.31,4744.00
674.78,4755.00
677.24,4808.00
679.70,4787.00
682.16,4670.00
684.62,4617.00
687.08,4755.00
689.53,4765.00
691.98,4669.00
694.43,4595.00
696.88,4616.00
699.33,4596.00
701.78,4627.00
704.22,4733.00
706.66,4702.00
709.10,4617.00
711.54,4606.00
713.98,4606.00
716.42,4596.00
718.85,4606.00
721.28,4670.00
723.71,4797.00
726.14,4840.00
728.57,4849.00
730.99,4818.00
733.41,4871.00
735.83,4839.00
738.25,4628.00
740.67,4490.00
743.09,4532.00
745.50,4490.00
747.91,4363.00
750.33,4331.00
752.73,4236.00
755.14,4257.00
757.55,4289.00
759.95,4194.00
762.35,4257.00
764.75,4172.00
767.15,4130.00
769.55,4225.00
771.95,4172.00
774.34,4246.00
776.73,4330.00
779.12,4278.00
781.51,4257.00
783.90,4278.00
786.28,4247.00
788.67,4267.00
791.05,4214.00
793.43,4193.00
795.80,4162.00
798.18,4183.00
800.56,4161.00
802.93,4130.00
805.30,4109.00
807.67,4098.00
810.04,4035.00
812.40,4034.00
814.77,4055.00
817.13,4034.00
819.49,4034.00
821.85,4013.00
824.21,3971.00
826.57,3896.00
828.92,3918.00
831.27,3907.00
833.63,3939.00
835.98,3897.00
838.32,3780.00
840.67,3812.00
843.01,3865.00
845.36,3802.00
847.70,3781.00
850.04,3865.00
852.37,3876.00
854.71,3865.00
857.05,3854.00
859.38,3759.00
861.71,3812.00
864.04,3834.00
866.37,3727.00
868.69,3706.00
871.02,3675.00
873.34,3717.00
875.66,3633.00
877.98,3738.00
880.30,3760.00
882.62,3675.00
884.93,3664.00
887.24,3706.00
889.55,3653.00
891.86,3653.00
894.17,3663.00
896.48,3610.00
898.78,3579.00
901.09,3601.00
903.39,3664.00
905.69,3643.00
907.99,3601.00
910.28,3527.00
912.58,3484.00
914.87,3537.00
917.16,3484.00
919.45,3473.00
921.74,3505.00
924.03,3410.00
926.31,3527.00
928.60,3579.00
930.88,3558.00
933.16,3484.00
935.44,3483.00
937.72,3484.00
939.99,3516.00
942.26,3505.00
944.54,3463.00
946.81,3463.00
949.08,3388.00
951.34,3388.00
953.61,3442.00
955.87,3441.00
958.14,3399.00
960.40,3357.00
962.66,3388.00
964.92,3304.00
967.17,3315.00
969.43,3409.00
971.68,3367.00
973.93,3315.00
976.18,3209.00
978.43,3272.00
980.68,3283.00
982.92,3166.00
985.17,3114.00
987.41,3124.00
989.65,3123.00
991.89,3103.00
994.12,3156.00
996.36,3134.00
998.59,3167.00
1000.83,3092.00
1003.06,3092.00
1005.29,3166.00
1007.51,3208.00
1009.74,3177.00
1011.97,3134.00
1014.19,2986.00
1016.41,2976.00
1018.63,3081.00
1020.85,3114.00
1023.07,3028.00
1025.28,3092.00
1027.49,3028.00
1029.71,3092.00
1031.92,3113.00
1034.13,3124.00
1036.33,3145.00
1038.54,3081.00
1040.74,2986.00
1042.95,2923.00
1045.15,3082.00
1047.35,3092.00
1049.55,2923.00
1051.74,2912.00
1053.94,2870.00
1056.13,2954.00
1058.32,2997.00
1060.51,2975.00
1062.70,2976.00
1064.89,2923.00
1067.08,2912.00
1069.26,2955.00
1071.44,2954.00
1073.63,2933.00
1075.81,2944.00
1077.98,2954.00
1080.16,2976.00
1082.34,2986.00
1084.51,2922.00
1086.68,2891.00
1088.85,2859.00
1091.02,2838.00
1093.19,2881.00
1095.35,2880.00
1097.52,2859.00
1099.68,2828.00
1101.84,2849.00
1104.00,2870.00
1106.16,2806.00
1108.32,2796.00
1110.48,2827.00
1112.63,2838.00
1114.78,2827.00
1116.93,2785.00
1119.08,2774.00
1121.23,2721.00
1123.38,2711.00
1125.52,2711.00
1127.67,2690.00
1129.81,2668.00
1131.95,2668.00
1134.09,2668.00
1136.22,2764.00
1138.36,2711.00
1140.50,2563.00
1142.63,2615.00
1144.76,2626.00
1146.89,2637.00
1149.02,2626.00
1151.15,2615.00
1153.27,2605.00
1155.40,2542.00
1157.52,2552.00
1159.64,2647.00
1161.76,2647.00
1163.88,2658.00
1165.99,2637.00
1168.11,2594.00
1170.22,2636.00
1172.34,2594.00
1174.45,2520.00
1176.56,2478.00
1178.66,2584.00
1180.77,2647.00
1182.88,2594.00
1184.98,2531.00
1187.08,2552.00
1189.18,2552.00
1191.28,2584.00
1193.38,2583.00
1195.47,2573.00
1197.57,2552.00
1199.66,2499.00
1201.75,2531.00
1203.85,2499.00
1205.93,2499.00
1208.02,2531.00
1210.11,2520.00
1212.19,2467.00
1214.28,2383.00
1216.36,2425.00
1218.44,2499.00
1220.52,2521.00
1222.59,2499.00
1224.67,2510.00
1226.74,2435.00
1228.82,2468.00
1230.89,2361.00
1232.96,2351.00
1235.03,2446.00
1237.10,2457.00
1239.16,2415.00
1241.23,2415.00
1243.29,2404.00
1245.35,2340.00
1247.41,2309.00
1249.47,2319.00
1251.53,2340.00
1253.58,2341.00
1255.64,2330.00
1257.69,2361.00
1259.74,2415.00
1261.79,2372.00
1263.84,2393.00
1265.89,2298.00
1267.93,2287.00
1269.98,2330.00
1272.02,2287.00
1274.06,2288.00
1276.10,2235.00
1278.14,2245.00
1280.18,2276.00
1282.22,2330.00
1284.25,2297.00
1286.28,2277.00
1288.32,2181.00
1290.35,2203.00
1292.38,2234.00
1294.40,2192.00
1296.43,2202.00
1298.46,2234.00
1300.48,2213.00
1302.50,2181.00
1304.52,2203.00
1306.54,2150.00
1308.56,2192.00
1310.58,2276.00
1312.59,2351.00
1314.60,2288.00
1316.62,2182.00
1318.63,2192.00
1320.64,2160.00
1322.65,2160.00
1324.65,2234.00
1326.66,2319.00
1328.66,2297.00
1330.66,2340.00
1332.67,2330.00
1334.67,2319.00
1336.66,2341.00
1338.66,2382.00
1340.66,2287.00
1342.65,2192.00
1344.65,2181.00
1346.64,2139.00
1348.63,2128.00
1350.62,2108.00
1352.60,2065.00
1354.59,2086.00
1356.57,2054.00
1358.56,2097.00
1360.54,2118.00
1362.52,2097.00
1364.50,2086.00
1366.48,2086.00
1368.46,2150.00
1370.43,2108.00
1372.41,2118.00
1374.38,2043.00
1376.35,1959.00
1378.32,2022.00
1380.29,2022.00
1382.25,1991.00
1384.22,2033.00
1386.18,2075.00
1388.15,2065.00
1390.11,2097.00
1392.07,2012.00
1394.03,1949.00
1395.99,1938.00
1397.94,2043.00
1399.90,2044.00
1401.85,2001.00
1403.80,1991.00
1405.76,1959.00
1407.71,1949.00
1409.65,1969.00
1411.60,2001.00
1413.55,1949.00
1415.49,1874.00
1417.44,1885.00
1419.38,2011.00
1421.32,2065.00
1423.26,1928.00
1425.19,1885.00
1427.13,2023.00
1429.07,1990.00
1431.00,1949.00
1432.93,1853.00
1434.86,1916.00
1436.79,1938.00
1438.72,1842.00
1440.65,1832.00
1442.57,1874.00
1444.50,1884.00
1446.42,1906.00
1448.34,1885.00
1450.26,1917.00
1452.18,1927.00
1454.10,1884.00
1456.02,1896.00
1457.93,1874.00
1459.85,1811.00
1461.76,1864.00
1463.67,1874.00
1465.58,1821.00
1467.49,1864.00
1469.40,1864.00
1471.31,1768.00
1473.21,1800.00
1475.11,1843.00
1477.02,1800.00
1478.92,1758.00
1480.82,1768.00
1482.72,1779.00
1484.61,1832.00
1486.51,1821.00
1488.40,1790.00
1490.30,1779.00
1492.19,1790.00
1494.08,1715.00
1495.97,1694.00
1497.86,1779.00
1499.74,1779.00
1501.63,1726.00
1503.51,1758.00
1505.40,1726.00
1507.28,1737.00
1509.16,1768.00
1511.04,1831.00
1512.92,1801.00
1514.79,1779.00
1516.67,1758.00
1518.54,1726.00
1520.42,1705.00
1522.29,1715.00
1524.16,1705.00
1526.03,1748.00
1527.89,1726.00
1529.76,1684.00
1531.63,1694.00
1533.49,1694.00
1535.35,1673.00
1537.21,1695.00
1539.07,1684.00
1540.93,1663.00
1542.79,1683.00
1544.65,1662.00
1546.50,1609.00
1548.36,1684.00
1550.21,1631.00
1552.06,1610.00
1553.91,1610.00
1555.76,1609.00
1557.61,1684.00
1559.45,1694.00
1561.30,1621.00
1563.14,1568.00
1564.98,1599.00
1566.82,1599.00
1568.67,1578.00
1570.50,1642.00
1572.34,1641.00
1574.18,1589.00
1576.01,1567.00
1577.85,1546.00
1579.68,1568.00
1581.51,1631.00
1583.34,1599.00
1585.17,1546.00
1587.00,1514.00
1588.82,1567.00
1590.65,1599.00
1592.47,1568.00
1594.30,1546.00
1596.12,1535.00
1597.94,1504.00
1599.76,1482.00
1601.57,1472.00
1603.39,1440.00
1605.21,1471.00
1607.02,1461.00
1608.83,1461.00
1610.64,1504.00
1612.45,1546.00
1614.26,1546.00
1616.07,1482.00
1617.88,1482.00
1619.68,1472.00
1621.49,1525.00
1623.29,1503.00
1625.09,1525.00
1626.89,1472.00
1628.69,1419.00
1630.49,1377.00
1632.29,1408.00
1634.08,1334.00
1635.88,1355.00
1637.67,1408.00
1639.46,1408.00
1641.25,1408.00
1643.04,1366.00
1644.83,1397.00
1646.62,1397.00
1648.41,1472.00
1650.19,1472.00
1651.97,1440.00
1653.76,1408.00
1655.54,1366.00
1657.32,1419.00
1659.10,1535.00
1660.88,1482.00
1662.65,1440.00
1664.43,1377.00
1666.20,1356.00
1667.97,1356.00
1669.75,1398.00
1671.52,1419.00
1673.29,1387.00
1675.05,1344.00
1676.82,1356.00
1678.59,1313.00
1680.35,1313.00
1682.11,1313.00
1683.88,1334.00
1685.64,1345.00
1687.40,1334.00
1689.16,1323.00
1690.91,1260.00
1692.67,1281.00
1694.42,1366.00
1696.18,1324.00
1697.93,1334.00
1699.68,1271.00
1701.43,1271.00
1703.18,1314.00
1704.93,1313.00
1706.68,1292.00
1708.42,1281.00
1710.17,1282.00
1711.91,1260.00
1713.65,1239.00
1715.39,1249.00
1717.13,1228.00
1718.87,1271.00
1720.61,1271.00
1722.35,1229.00
1724.08,1218.00
1725.81,1239.00
1727.55,1186.00
1729.28,1154.00
1731.01,1207.00
1732.74,1228.00
1734.47,1175.00
1736.19,1144.00
1737.92,1249.00
1739.64,1292.00
1741.37,1207.00
1743.09,1143.00
1744.81,1196.00
1746.53,1122.00
1748.25,1165.00
1749.97,1239.00
1751.68,1229.00
1753.40,1165.00
1755.11,1154.00
1756.83,1122.00
1758.54,1133.00
1760.25,1133.00
1761.96,1165.00
1763.67,1196.00
1765.38,1133.00
1767.08,1122.00
1768.79,1144.00
1770.49,1091.00
1772.19,1080.00
1773.90,1144.00
1775.60,1175.00
1777.30,1186.00
1778.99,1165.00
1780.69,1112.00
1782.39,1101.00
1784.08,1112.00
1785.78,1080.00
1787.47,1133.00
1789.16,1081.00
1790.85,1048.00
1792.54,1017.00
1794.23,1069.00
1795.91,1122.00
1797.60,1080.00
1799.28,1102.00
1800.97,1091.00
1802.65,1070.00
1804.33,1016.00
1806.01,1027.00
1807.69,1091.00
1809.37,1070.00
1811.05,1059.00
1812.72,1048.00
1814.40,1038.00
1816.07,1080.00
1817.74,1059.00
1819.41,1038.00
1821.08,1037.00
1822.75,1038.00
1824.42,1059.00
1826.09,1081.00
1827.75,1006.00
1829.42,1027.00
1831.08,995.00
1832.74,1017.00
1834.40,995.00
1836.06,953.00
1837.72,964.00
1839.38,1006.00
1841.04,974.00
1842.69,1028.00
1844.35,1081.00
1846.00,1048.00
1847.65,1048.00
1849.30,1017.00
1850.95,1016.00
1852.60,984.00
1854.25,921.00
1855.90,953.00
1857.54,1016.00
1859.19,1017.00
1860.83,964.00
1862.47,932.00
1864.12,964.00
1865.76,953.00
1867.40,953.00
1869.03,975.00
1870.67,943.00
1872.31,932.00
1873.94,943.00
1875.57,964.00
1877.21,879.00
1878.84,868.00
1880.47,921.00
1882.10,932.00
1883.73,910.00
1885.35,921.00
1886.98,921.00
1888.61,911.00
1890.23,922.00
1891.85,932.00
1893.47,889.00
1895.09,910.00
1896.71,910.00
1898.33,922.00
1899.95,932.00
1901.57,889.00
1903.18,921.00
1904.80,921.00
1906.41,921.00
1908.02,932.00
1909.63,932.00
1911.24,890.00
1912.85,858.00
1914.46,826.00
1916.07,826.00
1917.67,879.00
1919.28,847.00
1920.88,911.00
1922.48,900.00
1924.08,805.00
1925.68,837.00
1927.28,911.00
1928.88,847.00
1930.48,868.00
1932.07,878.00
1933.67,869.00
1935.26,879.00
1936.86,869.00
1938.45,794.00
1940.04,783.00
1941.63,784.00
1943.22,805.00
1944.80,805.00
1946.39,763.00
1947.98,783.00
1949.56,784.00
1951.14,794.00
1952.73,837.00
1954.31,837.00
1955.89,794.00
1957.47,816.00
1959.05,826.00
1960.62,815.00
1962.20,826.00
1963.77,816.00
1965.35,815.00
1966.92,825.00
1968.49,805.00
1970.06,794.00
1971.63,794.00
1973.20,763.00
1974.77,751.00
1976.34,763.00
1977.90,784.00
1979.47,762.00
1981.03,783.00
1982.59,730.00
1984.15,741.00
1985.71,762.00
1987.27,794.00
1988.83,762.00
1990.39,741.00
1991.94,752.00
1993.50,751.00
1995.05,720.00
1996.61,709.00
1998.16,741.00
1999.71,815.00
2001.26,773.00
2002.81,741.00
2004.36,763.00
2005.91,783.00
2007.45,741.00
2009.00,784.00
2010.54,773.00
2012.08,805.00
2013.62,816.00
2015.17,763.00
2016.71,783.00
2018.24,805.00
2019.78,784.00
2021.32,773.00
2022.85,741.00
2024.39,752.00
2025.92,741.00
2027.46,699.00
2028.99,678.00
2030.52,699.00
2032.05,710.00
2033.58,720.00
2035.10,731.00
2036.63,742.00
2038.16,731.00
2039.68,710.00
2041.21,752.00
2042.73,720.00
2044.25,710.00
2045.77,710.00
2047.29,720.00
2048.81,699.00
2050.33,709.00
2051.84,709.00
2053.36,689.00
2054.87,657.00
2056.39,614.00
2057.90,625.00
2059.41,646.00
2060.92,657.00
2062.43,656.00
2063.94,689.00
2065.45,710.00
2066.95,678.00
2068.46,688.00
2069.96,699.00
2071.47,678.00
2072.97,635.00
2074.47,635.00
2075.97,614.00
2077.47,657.00
2078.97,678.00
2080.47,635.00
2081.96,677.00
2083.46,688.00
2084.95,656.00
2086.45,635.00
2087.94,635.00
2089.43,614.00
2090.92,678.00
2092.41,688.00
2093.90,593.00
2095.39,572.00
2096.88,593.00
2098.36,636.00
2099.85,636.00
2101.33,635.00
2102.81,593.00
2104.30,572.00
2105.78,604.00
2107.26,604.00
2108.74,551.00
2110.21,561.00
2111.69,572.00
2113.17,583.00
2114.64,646.00
2116.12,657.00
2117.59,657.00
2119.06,614.00
2120.53,593.00
2122.00,646.00
2123.47,657.00
2124.94,614.00
2126.41,572.00
2127.87,530.00
2129.34,561.00
2130.80,593.00
2132.27,603.00
2133.73,551.00
2135.19,551.00
2136.65,551.00
2138.11,530.00
2139.57,508.00
2141.03,540.00
2142.48,561.00
2143.94,540.00
2145.39,508.00
2146.85,487.00
2148.30,488.00
2149.75,519.00
2151.20,550.00
2152.65,550.00
2154.10,614.00
2155.55,614.00
2157.00,550.00
2158.44,529.00
2159.89,529.00
2161.33,551.00
2162.78,508.00
2164.22,487.00
2165.66,509.00
2167.10,529.00
2168.54,571.00
2169.98,530.00
2171.42,529.00
2172.85,551.00
2174.29,572.00
2175.72,593.00
2177.16,530.00
2178.59,519.00
2180.02,487.00
2181.45,487.00
2182.88,530.00
2184.31,540.00
2185.74,509.00
2187.17,497.00
2188.59,487.00
2190.02,488.00
2191.44,508.00
2192.87,466.00
2194.29,487.00
2195.71,508.00
2197.13,497.00
2198.55,508.00
2199.97,498.00
2201.39,509.00
2202.81,508.00
2204.22,466.00
2205.64,497.00
2207.05,487.00
2208.46,477.00
2209.88,477.00
2211.29,445.00
2212.70,508.00
2214.11,509.00
2215.52,444.00
2216.92,487.00
2218.33,561.00
2219.74,487.00
2221.14,413.00
2222.54,466.00
2223.95,529.00
2225.35,455.00
2226.75,476.00
2228.15,434.00
2229.55,444.00
2230.95,477.00
2232.35,477.00
2233.74,509.00
2235.14,487.00
2236.53,455.00
2237.93,444.00
2239.32,444.00
2240.71,465.00
2242.10,498.00
2243.49,509.00
2244.88,498.00
2246.27,508.00
2247.66,455.00
2249.04,476.00
2250.43,445.00
2251.81,413.00
2253.20,445.00
2254.58,477.00
2255.96,529.00
2257.34,476.00
2258.72,445.00
2260.10,445.00
2261.48,435.00
2262.86,413.00
2264.23,466.00
2265.61,498.00
2266.98,477.00
2268.36,466.00
2269.73,381.00
2271.10,392.00
2272.47,434.00
2273.84,444.00
2275.21,445.00
2276.58,424.00
2277.95,445.00
2279.31,413.00
2280.68,403.00
2282.05,445.00
2283.41,423.00
2284.77,423.00
2286.13,402.00
2287.50,413.00
2288.86,466.00
2290.22,445.00
2291.57,413.00
2292.93,403.00
2294.29,382.00
2295.64,339.00
2297.00,381.00
2298.35,466.00
2299.71,445.00
2301.06,445.00
2302.41,424.00
2303.76,360.00
2305.11,339.00
2306.46,349.00
2307.81,434.00
2309.15,403.00
2310.50,392.00
2311.84,402.00
2313.19,360.00
2314.53,392.00
2315.87,424.00
2317.22,392.00
2318.56,339.00
2319.90,360.00
2321.24,339.00
2322.57,328.00
2323.91,349.00
2325.25,371.00
2326.58,371.00
2327.92,339.00
2329.25,339.00
2330.58,349.00
2331.91,360.00
2333.25,381.00
2334.58,371.00
2335.90,360.00
2337.23,339.00
2338.56,339.00
2339.89,360.00
2341.21,382.00
2342.54,328.00
2343.86,360.00
2345.19,339.00
2346.51,360.00
2347.83,392.00
2349.15,349.00
2350.47,328.00
2351.79,318.00
2353.11,328.00
2354.42,360.00
2355.74,360.00
2357.06,392.00
2358.37,371.00
2359.68,339.00
2361.00,328.00
2362.31,318.00
2363.62,286.00
2364.93,275.00
2366.24,339.00
2367.55,402.00
2368.86,381.00
2370.16,328.00
2371.47,371.00
2372.77,370.00
2374.08,307.00
2375.38,317.00
2376.68,328.00
2377.98,275.00
2379.29,307.00
2380.59,360.00
2381.88,371.00
2383.18,339.00
2384.48,328.00
2385.78,307.00
2387.07,286.00
2388.37,329.00
2389.66,350.00
2390.95,371.00
2392.25,371.00
2393.54,339.00
2394.83,286.00
2396.12,275.00
2397.41,307.00
2398.70,275.00
2399.98,265.00
2401.27,286.00
2402.55,275.00
2403.84,307.00
2405.12,329.00
2406.41,307.00
2407.69,286.00
2408.97,328.00
2410.25,339.00
2411.53,307.00
2412.81,307.00
2414.09,297.00
2415.36,338.00
2416.64,317.00
2417.91,296.00
2419.19,297.00
2420.46,297.00
2421.74,233.00
2423.01,307.00
2424.28,275.00
2425.55,265.00
2426.82,317.00
2428.09,339.00
2429.36,328.00
2430.62,254.00
2431.89,296.00
2433.15,276.00
2434.42,318.00
2435.68,339.00
2436.94,286.00
2438.21,264.00
2439.47,308.00
2440.73,329.00
2441.99,286.00
2443.25,317.00
2444.51,328.00
2445.76,296.00
2447.02,286.00
2448.27,275.00
2449.53,244.00
2450.78,244.00
2452.03,222.00
2453.29,265.00
2454.54,275.00
2455.79,318.00
2457.04,296.00
2458.29,296.00
2459.54,254.00
2460.78,232.00
2462.03,233.00
2463.27,254.00
2464.52,255.00
2465.76,233.00
2467.01,264.00
2468.25,254.00
2469.49,244.00
2470.73,318.00
2471.97,286.00
2473.21,286.00
2474.45,318.00
2475.69,297.00
2476.92,212.00
2478.16,233.00
2479.39,255.00
2480.63,275.00
2481.86,275.00
2483.09,254.00
2484.32,212.00
2485.56,233.00
2486.79,170.00
2488.02,233.00
2489.24,265.00
2490.47,233.00
2491.70,212.00
2492.92,285.00
2494.15,285.00
2495.37,275.00
2496.60,243.00
2497.82,244.00
2499.04,255.00
2500.26,254.00
2501.48,243.00
2502.70,244.00
2503.92,254.00
2505.14,212.00
2506.36,212.00
2507.58,222.00
2508.79,212.00
2510.01,243.00
2511.22,254.00
2512.43,243.00
2513.64,254.00
2514.86,233.00
2516.07,212.00
2517.28,201.00
2518.49,201.00
2519.70,275.00
2520.90,244.00
2522.11,233.00
2523.32,212.00
2524.52,201.00
2525.73,255.00
2526.93,244.00
2528.13,254.00
2529.33,243.00
2530.54,212.00
2531.74,222.00
2532.94,212.00
2534.14,201.00
2535.33,191.00
2536.53,233.00
2537.73,254.00
2538.92,275.00
2540.12,307.00
2541.31,264.00
2542.51,243.00
2543.70,201.00
2544.89,212.00
2546.08,243.00
2547.27,212.00
2548.46,243.00
2549.65,211.00
2550.84,169.00
2552.03,233.00
2553.21,254.00
2554.40,201.00
2555.58,191.00
2556.77,191.00
2557.95,223.00
2559.13,180.00
2560.31,190.00
2561.50,233.00
2562.68,212.00
2563.85,212.00
2565.03,254.00
2566.21,201.00
2567.39,211.00
2568.56,233.00
2569.74,201.00
2570.91,201.00
2572.09,180.00
2573.26,190.00
2574.43,169.00
2575.61,149.00
2576.78,190.00
2577.95,233.00
2579.12,233.00
2580.29,190.00
2581.45,191.00
2582.62,233.00
2583.79,190.00
2584.95,158.00
2586.12,191.00
2587.28,190.00
2588.44,180.00
2589.61,190.00
2590.77,191.00
2591.93,170.00
2593.09,212.00
2594.25,201.00
2595.41,159.00
2596.56,180.00
2597.72,169.00
2598.88,180.00
2600.03,169.00
2601.19,127.00
2602.34,85.00
2603.50,148.00
2604.65,190.00
2605.80,191.00
2606.95,243.00
2608.10,190.00
2609.25,159.00
2610.40,149.00
2611.55,148.00
2612.70,190.00
2613.84,180.00
2614.99,169.00
2616.13,159.00
2617.28,138.00
2618.42,137.00
2619.56,159.00
2620.71,211.00
2621.85,159.00
2622.99,148.00
2624.13,169.00
2625.27,180.00
2626.40,191.00
2627.54,180.00
2628.68,190.00
2629.81,159.00
2630.95,106.00
2632.08,127.00
2633.22,170.00
2634.35,148.00
2635.48,148.00
2636.61,138.00
2637.74,85.00
2638.87,105.00
2640.00,159.00
2641.13,180.00
2642.26,116.00
2643.39,159.00
2644.51,190.00
2645.64,148.00
2646.76,148.00
2647.89,169.00
2649.01,170.00
2650.13,169.00
2651.25,148.00
2652.38,137.00
2653.50,127.00
2654.62,127.00
2655.73,137.00
2656.85,85.00
2657.97,148.00
2659.09,149.00
2660.20,127.00
2661.32,190.00
2662.43,190.00
2663.55,170.00
2664.66,169.00
2665.77,116.00
2666.88,95.00
2667.99,159.00
2669.10,169.00
2670.21,148.00
2671.32,127.00
2672.43,127.00
2673.54,137.00
2674.64,127.00
2675.75,148.00
2676.85,159.00
2677.96,190.00
2679.06,170.00
2680.16,148.00
2681.26,127.00
2682.37,84.00
2683.47,84.00
2684.57,116.00
2685.66,149.00
2686.76,159.00
2687.86,159.00
2688.96,169.00
2690.05,159.00
2691.15,127.00
2692.24,148.00
2693.34,149.00
2694.43,159.00
2695.52,201.00
2696.62,170.00
2697.71,148.00
2698.80,127.00
2699.89,95.00
2700.98,138.00
2702.06,159.00
2703.15,222.00
2704.24,169.00
2705.32,127.00
2706.41,127.00
2707.49,106.00
2708.58,127.00
2709.66,148.00
2710.74,106.00
2711.83,106.00
2712.91,105.00
2713.99,127.00
2715.07,169.00
2716.15,180.00
2717.22,159.00
2718.30,149.00
2719.38,169.00
2720.45,127.00
2721.53,127.00
2722.60,127.00
2723.68,95.00
2724.75,52.00
2725.82,63.00
2726.89,159.00
2727.97,159.00
2729.04,96.00
2730.11,43.00
2731.17,96.00
2732.24,149.00
2733.31,201.00
2734.38,106.00
2735.44,95.00
2736.51,127.00
2737.57,148.00
2738.64,148.00
2739.70,169.00
2740.76,149.00
2741.82,137.00
2742.89,159.00
2743.95,117.00
2745.01,42.00
2746.07,63.00
2747.12,95.00
2748.18,148.00
2749.24,106.00
2750.29,95.00
2751.35,95.00
2752.40,137.00
2753.46,106.00
2754.51,95.00
2755.57,95.00
2756.62,127.00
2757.67,127.00
2758.72,106.00
2759.77,127.00
2760.82,149.00
2761.87,85.00
2762.91,106.00
2763.96,116.00
2765.01,106.00
2766.05,96.00
2767.10,85.00
2768.14,85.00
2769.19,84.00
2770.23,74.00
2771.27,95.00
2772.31,137.00
2773.35,138.00
2774.40,116.00
2775.43,84.00
2776.47,64.00
2777.51,84.00
2778.55,32.00
2779.59,85.00
2780.62,105.00
2781.66,137.00
2782.69,159.00
2783.73,159.00
2784.76,117.00
2785.79,117.00
2786.82,127.00
2787.85,149.00
2788.89,127.00
2789.92,106.00
2790.94,137.00
2791.97,116.00
2793.00,127.00
2794.03,127.00
2795.05,127.00
2796.08,85.00
2797.11,106.00
2798.13,127.00
2799.15,127.00
2800.18,117.00
2801.20,148.00
2802.22,127.00
2803.24,127.00
2804.26,127.00
2805.28,148.00
2806.30,127.00
2807.32,95.00
2808.34,95.00
2809.35,74.00
2810.37,64.00
2811.39,63.00
2812.40,64.00
2813.41,63.00
2814.43,85.00
2815.44,42.00
2816.45,21.00
2817.46,74.00
2818.48,84.00
2819.49,138.00
2820.49,170.00
2821.50,137.00
2822.51,85.00
2823.52,85.00
2824.53,84.00
2825.53,75.00
2826.54,85.00
2827.54,85.00
2828.55,127.00
2829.55,127.00
2830.55,106.00
2831.55,74.00
2832.56,63.00
2833.56,53.00
2834.56,64.00
2835.56,31.00
2836.56,53.00
2837.55,85.00
2838.55,137.00
2839.55,127.00
2840.54,117.00
2841.54,74.00
2842.53,74.00
2843.53,85.00
2844.52,84.00
2845.51,85.00
2846.51,85.00
2847.50,63.00
2848.49,74.00
2849.48,127.00
2850.47,116.00
2851.46,84.00
2852.45,64.00
2853.43,63.00
2854.42,85.00
2855.41,63.00
2856.39,85.00
2857.38,64.00
2858.36,43.00
2859.34,52.00
2860.33,85.00
2861.31,117.00
2862.29,116.00
2863.27,85.00
2864.25,127.00
2865.23,159.00
2866.21,106.00
2867.19,53.00
2868.17,116.00
2869.14,170.00
2870.12,106.00
2871.09,53.00
2872.07,53.00
2873.04,53.00
2874.02,84.00
2874.99,85.00
2875.96,63.00
2876.93,105.00
2877.91,106.00
2878.88,42.00
2879.85,43.00
2880.82,43.00
2881.78,32.00
2882.75,84.00
2883.72,75.00
2884.69,85.00
2885.65,85.00
2886.62,74.00
2887.58,53.00
2888.55,84.00
2889.51,127.00
2890.47,84.00
2891.43,63.00
2892.39,85.00
2893.36,127.00
2894.31,95.00
2895.27,106.00
2896.23,42.00
2897.19,75.00
2898.15,85.00
2899.11,96.00
2900.06,95.00
2901.02,32.00
2901.97,74.00
2902.93,106.00
2903.88,85.00
2904.83,106.00
2905.79,74.00
2906.74,32.00
2907.69,63.00
2908.64,116.00
2909.59,105.00
2910.54,85.00
2911.49,74.00
2912.43,106.00
2913.38,106.00
2914.33,63.00
2915.27,42.00
2916.22,32.00
2917.16,21.00
2918.11,42.00
2919.05,42.00
2919.99,21.00
2920.94,32.00
2921.88,75.00
2922.82,106.00
2923.76,84.00
2924.70,85.00
2925.64,74.00
2926.58,85.00
2927.51,63.00
2928.45,85.00
2929.39,64.00
2930.32,74.00
2931.26,85.00
2932.19,85.00
2933.13,74.00
2934.06,31.00
2934.99,21.00
2935.92,105.00
2936.86,75.00
2937.79,42.00
2938.72,53.00
2939.65,53.00
2940.57,21.00
2941.50,42.00
2942.43,64.00
2943.36,42.00
2944.28,42.00
2945.21,85.00
2946.13,85.00
2947.06,84.00
2947.98,96.00
2948.91,21.00
2949.83,32.00
2950.75,74.00
2951.67,106.00
2952.59,74.00
2953.51,84.00
2954.43,63.00
2955.35,64.00
2956.27,85.00
2957.19,74.00
2958.10,63.00
2959.02,85.00
2959.94,117.00
2960.85,106.00
2961.77,116.00
2962.68,85.00
2963.59,85.00
2964.51,74.00
2965.42,32.00
2966.33,10.00
2967.24,53.00
2968.15,42.00
2969.06,0.00
2969.97,10.00
2970.88,0.00
2971.78,21.00
2972.69,21.00
2973.60,64.00
2974.50,75.00
2975.41,32.00
2976.31,0.00
2977.22,64.00
2978.12,21.00
2979.02,53.00
2979.93,95.00
2980.83,85.00
2981.73,53.00
2982.63,105.00
2983.53,127.00
2984.43,74.00
2985.33,53.00
2986.22,63.00
2987.12,43.00
2988.02,84.00
2988.91,74.00
2989.81,0.00
2990.70,85.00
2991.60,85.00
2992.49,63.00
2993.38,85.00
2994.28,95.00
2995.17,74.00
2996.06,42.00
2996.95,63.00
2997.84,53.00
2998.73,85.00
2999.62,75.00
3000.51,10.00
3001.40,63.00
3002.28,74.00
3003.17,74.00
3004.05,85.00
3004.94,116.00
3005.82,63.00
3006.71,75.00
3007.59,106.00
3008.47,64.00
3009.36,74.00
3010.24,53.00
3011.12,52.00
3012.00,64.00
3012.88,43.00
3013.76,64.00
3014.64,85.00
3015.51,85.00
3016.39,21.00
3017.27,-10.00
3018.14,21.00
3019.02,32.00
3019.89,85.00
3020.77,32.00
3021.64,43.00
3022.52,84.00
3023.39,64.00
3024.26,63.00
3025.13,43.00
3026.00,53.00
3026.87,64.00
3027.74,53.00
3028.61,21.00
3029.48,21.00
3030.35,42.00
3031.21,53.00
3032.08,0.00
3032.95,10.00
3033.81,74.00
3034.68,84.00
3035.54,63.00
3036.40,21.00
3037.27,42.00
3038.13,21.00
3038.99,0.00
3039.85,74.00
3040.71,11.00
3041.57,22.00
3042.43,42.00
3043.29,43.00
3044.15,11.00
3045.01,42.00
3045.86,64.00
3046.72,85.00
3047.58,85.00
3048.43,106.00
3049.29,32.00
3050.14,43.00
3050.99,43.00
3051.85,63.00
3052.70,63.00
3053.55,53.00
3054.40,42.00
3055.25,53.00
3056.10,106.00
3056.95,32.00
3057.80,10.00
3058.65,42.00
3059.50,43.00
3060.34,53.00
3061.19,74.00
3062.04,63.00
3062.88,53.00
3063.73,74.00
3064.57,-21.00
3065.42,0.00
3066.26,42.00
3067.10,42.00
3067.94,21.00
3068.78,0.00
3069.63,21.00
3070.47,84.00
3071.31,32.00
3072.14,21.00
3072.98,11.00
3073.82,43.00
3074.66,53.00
3075.49,42.00
3076.33,85.00
3077.17,42.00
3078.00,43.00
3078.83,21.00
3079.67,0.00
3080.50,31.00
3081.33,53.00
3082.17,11.00
3083.00,52.00
3083.83,11.00
3084.66,42.00
3085.49,-21.00
3086.32,-21.00
3087.15,0.00
3087.97,21.00
3088.80,32.00
3089.63,74.00
3090.46,32.00
3091.28,43.00
3092.11,21.00
3092.93,11.00
3093.75,85.00
3094.58,64.00
3095.40,21.00
3096.22,42.00
3097.05,42.00
3097.87,21.00
3098.69,21.00
3099.51,0.00
3100.33,42.00
3101.15,63.00
3101.96,0.00
3102.78,-53.00
3103.60,11.00
3104.42,53.00
3105.23,21.00
3106.05,10.00
3106.86,63.00
3107.68,74.00
3108.49,105.00
3109.30,64.00
3110.12,-11.00
3110.93,10.00
3111.74,11.00
3112.55,11.00
3113.36,43.00
3114.17,74.00
3114.98,64.00
3115.79,53.00
3116.60,63.00
3117.40,10.00
3118.21,53.00
3119.02,21.00
3119.82,53.00
3120.63,42.00
3121.43,0.00
3122.24,10.00
3123.04,32.00
3123.84,42.00
3124.65,32.00
3125.45,42.00
3126.25,106.00
3127.05,32.00
3127.85,53.00
3128.65,84.00
3129.45,95.00
3130.25,63.00
3131.05,21.00
3131.84,53.00
3132.64,74.00
3133.44,42.00
3134.23,-21.00
3135.03,0.00
3135.82,-32.00
3136.62,0.00
3137.41,53.00
3138.20,-32.00
3139.00,-21.00
3139.79,42.00
3140.58,64.00
3141.37,-43.00
3142.16,21.00
3142.95,42.00
3143.74,0.00
3144.53,-21.00
3145.32,53.00
3146.10,63.00
3146.89,53.00
3147.68,0.00
3148.46,11.00
3149.25,42.00
3150.03,42.00
3150.82,11.00
3151.60,64.00
3152.38,21.00
3153.17,21.00
3153.95,64.00
3154.73,42.00
3155.51,53.00
3156.29,42.00
3157.07,31.00
3157.85,64.00
3158.63,11.00
3159.41,-21.00
3160.18,21.00
3160.96,43.00
3161.74,74.00
3162.51,32.00
3163.29,11.00
3164.06,10.00
3164.84,21.00
3165.61,85.00
3166.38,63.00
3167.16,21.00
3167.93,10.00
3168.70,21.00
3169.47,21.00
3170.24,-11.00
3171.01,11.00
3171.78,43.00
3172.55,74.00
3173.32,32.00
3174.09,53.00
3174.85,43.00
3175.62,-21.00
3176.39,-53.00
3177.15,-21.00
3177.92,42.00
3178.68,32.00
3179.45,-43.00
3180.21,11.00
3180.97,42.00
3181.73,32.00
3182.50,0.00
3183.26,0.00
3184.02,85.00
3184.78,106.00
3185.54,74.00
3186.30,42.00
3187.05,10.00
3187.81,0.00
3188.57,0.00
3189.33,53.00
3190.08,64.00
3190.84,32.00
3191.59,127.00
3192.35,117.00
3193.10,95.00
3193.86,85.00
3194.61,85.00
3195.36,85.00
3196.12,85.00
3196.87,105.00
3197.62,21.00
3198.37,31.00
3199.12,53.00
3199.87,43.00
3200.62,53.00
3201.36,32.00
3202.11,32.00
3202.86,74.00
3203.61,53.00
3204.35,0.00
3205.10,42.00
3205.84,42.00
3206.59,43.00
3207.33,85.00
3208.08,22.00
3208.82,21.00
3209.56,32.00
3210.30,0.00
3211.05,32.00
3211.79,95.00
3212.53,85.00
3213.27,32.00
3214.01,-21.00
3214.75,10.00
3215.48,85.00
3216.22,42.00
3216.96,-21.00
3217.69,21.00
3218.43,42.00
3219.17,0.00
3219.90,-11.00
3220.64,-21.00
3221.37,-64.00
3222.10,-10.00
3222.84,0.00
3223.57,10.00
3224.30,0.00
3225.03,-11.00
3225.76,11.00
3226.49,11.00
3227.22,0.00
3227.95,-21.00
3228.68,21.00
3229.41,-21.00
3230.14,22.00
3230.87,116.00
3231.59,95.00
3232.32,11.00
3233.04,-11.00
3233.77,53.00
3234.49,42.00
3235.22,0.00
3235.94,11.00
3236.66,22.00
3237.39,-21.00
3238.11,-11.00
3238.83,0.00
3239.55,-53.00
3240.27,-43.00
3240.99,0.00
3241.71,22.00
3242.43,42.00
3243.15,32.00
3243.87,53.00
3244.58,64.00
3245.30,0.00
3246.02,-10.00
3246.73,32.00
3247.45,53.00
3248.16,21.00
3248.88,0.00
3249.59,43.00
3250.30,31.00
3251.01,11.00
3251.73,0.00
3252.44,32.00
3253.15,-21.00
3253.86,-21.00
3254.57,0.00
3255.28,-11.00
3255.99,22.00
3256.70,0.00
3257.41,11.00
3258.11,0.00
3258.82,0.00
3259.53,85.00
3260.23,74.00
3260.94,10.00
3261.64,42.00
3262.35,53.00
3263.05,53.00
3263.76,53.00
3264.46,-32.00
3265.16,0.00
3265.86,75.00
3266.56,63.00
3267.26,85.00
3267.97,64.00
3268.67,63.00
3269.36,10.00
3270.06,0.00
3270.76,-21.00
3271.46,0.00
3272.16,-22.00
3272.85,0.00
