RamanShift,Intensity
180.91,212.00
183.74,201.00
186.56,339.00
189.39,371.00
192.21,466.00
195.03,699.00
197.84,826.00
200.66,974.00
203.47,1249.00
206.28,1451.00
209.09,1631.00
211.89,1853.00
214.70,2002.00
217.50,2160.00
220.30,2235.00
223.10,2171.00
225.89,2192.00
228.69,2267.00
231.48,2393.00
234.27,2382.00
237.05,2319.00
239.84,2446.00
242.62,2404.00
245.40,2319.00
248.18,2298.00
250.96,2266.00
253.73,2202.00
256.51,2192.00
259.28,2160.00
262.05,2044.00
264.81,2002.00
267.58,2044.00
270.34,2033.00
273.10,2065.00
275.86,2128.00
278.61,2149.00
281.37,1980.00
284.12,2022.00
286.87,2065.00
289.62,2001.00
292.36,1980.00
295.11,1938.00
297.85,1906.00
300.59,1906.00
303.33,1948.00
306.06,1959.00
308.80,1949.00
311.53,1895.00
314.26,1885.00
316.99,1917.00
319.71,1853.00
322.44,1906.00
325.16,1948.00
327.88,1917.00
330.59,1895.00
333.31,1906.00
336.02,1949.00
338.73,1970.00
341.44,2054.00
344.15,1895.00
346.86,1854.00
349.56,1927.00
352.26,1906.00
354.96,1895.00
357.66,1959.00
360.35,1916.00
363.05,1874.00
365.74,1938.00
368.43,1959.00
371.12,1970.00
373.80,2002.00
376.48,1949.00
379.17,1863.00
381.85,1884.00
384.52,2054.00
387.20,2150.00
389.87,2023.00
392.54,1938.00
395.21,1906.00
397.88,1864.00
400.55,1928.00
403.21,1937.00
405.87,1906.00
408.53,1906.00
411.19,1938.00
413.84,1938.00
416.50,1874.00
419.15,1885.00
421.80,1927.00
424.45,1959.00
427.10,2001.00
429.74,1981.00
432.38,2023.00
435.02,1959.00
437.66,1938.00
440.30,1959.00
442.93,2033.00
445.56,2012.00
448.19,1970.00
450.82,2023.00
453.45,2023.00
456.07,1959.00
458.70,1928.00
461.32,2065.00
463.94,2076.00
466.55,1969.00
469.17,1810.00
471.78,1843.00
474.39,1938.00
477.00,1906.00
479.61,1906.00
482.22,1937.00
484.82,1874.00
487.42,1948.00
490.02,1970.00
492.62,1917.00
495.21,1991.00
497.81,1980.00
500.40,1938.00
502.99,1949.00
505.58,2012.00
508.17,1948.00
510.75,1970.00
513.33,1991.00
515.91,2023.00
518.49,1959.00
521.07,1916.00
523.65,1853.00
526.22,1885.00
528.79,1875.00
531.36,1811.00
533.93,1832.00
536.49,1800.00
539.06,1779.00
541.62,1779.00
544.18,1821.00
546.74,1895.00
549.30,1853.00
551.85,1789.00
554.40,1853.00
556.95,1864.00
559.50,1843.00
562.05,1822.00
564.59,1832.00
567.14,1800.00
569.68,1768.00
572.22,1757.00
574.76,1748.00
577.29,1843.00
579.83,1800.00
582.36,1906.00
584.89,1874.00
587.42,1853.00
589.95,1875.00
592.47,1800.00
594.99,1853.00
597.52,1800.00
600.04,1758.00
602.55,1748.00
605.07,1705.00
607.58,1715.00
610.09,1747.00
612.60,1726.00
615.11,1620.00
617.62,1610.00
620.12,1642.00
622.63,1631.00
625.13,1726.00
627.63,1768.00
630.13,1726.00
632.62,1673.00
635.12,1737.00
637.61,1769.00
640.10,1694.00
642.59,1631.00
645.07,1609.00
647.56,1641.00
650.04,1578.00
652.52,1642.00
655.00,1779.00
657.48,1737.00
659.96,1652.00
662.43,1631.00
664.90,1641.00
667.37,1642.00
669.84,1652.00
672.31,1620.00
674.78,1610.00
677.24,1599.00
679.70,1524.00
682.16,1641.00
684.62,1652.00
687.08,1588.00
689.53,1556.00
691.98,1514.00
694.43,1620.00
696.88,1673.00
699.33,1599.00
701.78,1631.00
704.22,1578.00
706.66,1483.00
709.10,1588.00
711.54,1620.00
713.98,1525.00
716.42,1515.00
718.85,1556.00
721.28,1610.00
723.71,1610.00
726.14,1662.00
728.57,1747.00
730.99,1758.00
733.41,1757.00
735.83,1779.00
738.25,1673.00
740.67,1705.00
743.09,1652.00
745.50,1578.00
747.91,1504.00
750.33,1451.00
752.73,1504.00
755.14,1493.00
757.55,1461.00
759.95,1462.00
762.35,1451.00
764.75,1440.00
767.15,1398.00
769.55,1429.00
771.95,1493.00
774.34,1461.00
776.73,1461.00
779.12,1408.00
781.51,1430.00
783.90,1472.00
786.28,1483.00
788.67,1472.00
791.05,1482.00
793.43,1472.00
795.80,1440.00
798.18,1493.00
800.56,1493.00
802.93,1345.00
805.30,1313.00
807.67,1355.00
810.04,1408.00
812.40,1345.00
814.77,1281.00
817.13,1355.00
819.49,1440.00
821.85,1302.00
824.21,1228.00
826.57,1324.00
828.92,1324.00
831.27,1313.00
833.63,1356.00
835.98,1377.00
838.32,1356.00
840.67,1281.00
843.01,1292.00
845.36,1261.00
847.70,1313.00
850.04,1270.00
852.37,1208.00
854.71,1239.00
857.05,1302.00
859.38,1261.00
861.71,1271.00
864.04,1207.00
866.37,1239.00
868.69,1239.00
871.02,1218.00
873.34,1175.00
875.66,1196.00
877.98,1186.00
880.30,1249.00
882.62,1323.00
884.93,1292.00
887.24,1207.00
889.55,1239.00
891.86,1207.00
894.17,1165.00
896.48,1144.00
898.78,1091.00
901.09,1207.00
903.39,1261.00
905.69,1217.00
907.99,1165.00
910.28,1207.00
912.58,1250.00
914.87,1239.00
917.16,1175.00
919.45,1229.00
921.74,1165.00
924.03,1165.00
926.31,1154.00
928.60,1155.00
930.88,1112.00
933.16,1165.00
935.44,1112.00
937.72,1049.00
939.99,1122.00
942.26,1164.00
944.54,1175.00
946.81,1197.00
949.08,1186.00
951.34,1091.00
953.61,1122.00
955.87,1185.00
958.14,1154.00
960.40,1155.00
962.66,1112.00
964.92,1048.00
967.17,1101.00
969.43,1175.00
971.68,1111.00
973.93,1048.00
976.18,1069.00
978.43,1070.00
980.68,1122.00
982.92,1122.00
985.17,1111.00
987.41,1133.00
989.65,1080.00
991.89,1038.00
994.12,1112.00
996.36,1069.00
998.59,1059.00
1000.83,1027.00
1003.06,1006.00
1005.29,974.00
1007.51,995.00
1009.74,1080.00
1011.97,1090.00
1014.19,1059.00
1016.41,1049.00
1018.63,1080.00
1020.85,1101.00
1023.07,1027.00
1025.28,1016.00
1027.49,1027.00
1029.71,1027.00
1031.92,1080.00
1034.13,1080.00
1036.33,1101.00
1038.54,1059.00
1040.74,1028.00
1042.95,985.00
1045.15,1006.00
1047.35,1038.00
1049.55,1038.00
1051.74,985.00
1053.94,974.00
1056.13,1049.00
1058.32,996.00
1060.51,964.00
1062.70,984.00
1064.89,1027.00
1067.08,1006.00
1069.26,1027.00
1071.44,931.00
1073.63,847.00
1075.81,879.00
1077.98,995.00
1080.16,974.00
1082.34,921.00
1084.51,889.00
1086.68,931.00
1088.85,974.00
1091.02,964.00
1093.19,911.00
1095.35,921.00
1097.52,921.00
1099.68,921.00
1101.84,1017.00
1104.00,985.00
1106.16,953.00
1108.32,964.00
1110.48,953.00
1112.63,900.00
1114.78,974.00
1116.93,1038.00
1119.08,953.00
1121.23,921.00
1123.38,942.00
1125.52,858.00
1127.67,921.00
1129.81,995.00
1131.95,942.00
1134.09,932.00
1136.22,942.00
1138.36,910.00
1140.50,942.00
1142.63,932.00
1144.76,848.00
1146.89,857.00
1149.02,900.00
1151.15,847.00
1153.27,889.00
1155.40,911.00
1157.52,889.00
1159.64,847.00
1161.76,878.00
1163.88,910.00
1165.99,911.00
1168.11,847.00
1170.22,804.00
1172.34,858.00
1174.45,879.00
1176.56,847.00
1178.66,784.00
1180.77,826.00
1182.88,847.00
1184.98,858.00
1187.08,847.00
1189.18,911.00
1191.28,964.00
1193.38,879.00
1195.47,879.00
1197.57,922.00
1199.66,879.00
1201.75,890.00
1203.85,868.00
1205.93,847.00
1208.02,858.00
1210.11,889.00
1212.19,889.00
1214.28,795.00
1216.36,826.00
1218.44,889.00
1220.52,805.00
1222.59,805.00
1224.67,837.00
1226.74,826.00
1228.82,847.00
1230.89,857.00
1232.96,815.00
1235.03,784.00
1237.10,816.00
1239.16,836.00
1241.23,783.00
1243.29,751.00
1245.35,731.00
1247.41,783.00
1249.47,815.00
1251.53,783.00
1253.58,889.00
1255.64,847.00
1257.69,858.00
1259.74,837.00
1261.79,804.00
1263.84,773.00
1265.89,741.00
1267.93,751.00
1269.98,805.00
1272.02,773.00
1274.06,762.00
1276.10,762.00
1278.14,752.00
1280.18,752.00
1282.22,709.00
1284.25,742.00
1286.28,678.00
1288.32,698.00
1290.35,699.00
1292.38,752.00
1294.40,741.00
1296.43,668.00
1298.46,677.00
1300.48,731.00
1302.50,698.00
1304.52,720.00
1306.54,678.00
1308.56,677.00
1310.58,678.00
1312.59,710.00
1314.60,720.00
1316.62,720.00
1318.63,762.00
1320.64,794.00
1322.65,773.00
1324.65,804.00
1326.66,816.00
1328.66,805.00
1330.66,773.00
1332.67,699.00
1334.67,720.00
1336.66,805.00
1338.66,762.00
1340.66,741.00
1342.65,741.00
1344.65,773.00
1346.64,710.00
1348.63,731.00
1350.62,763.00
1352.60,826.00
1354.59,741.00
1356.57,709.00
1358.56,742.00
1360.54,709.00
1362.52,678.00
1364.50,657.00
1366.48,709.00
1368.46,720.00
1370.43,646.00
1372.41,668.00
1374.38,710.00
1376.35,657.00
1378.32,593.00
1380.29,614.00
1382.25,635.00
1384.22,699.00
1386.18,699.00
1388.15,677.00
1390.11,709.00
1392.07,688.00
1394.03,678.00
1395.99,699.00
1397.94,773.00
1399.90,710.00
1401.85,699.00
1403.80,667.00
1405.76,731.00
1407.71,752.00
1409.65,698.00
1411.60,689.00
1413.55,646.00
1415.49,699.00
1417.44,657.00
1419.38,667.00
1421.32,710.00
1423.26,688.00
1425.19,625.00
1427.13,635.00
1429.07,625.00
1431.00,593.00
1432.93,593.00
1434.86,603.00
1436.79,646.00
1438.72,624.00
1440.65,572.00
1442.57,561.00
1444.50,625.00
1446.42,635.00
1448.34,635.00
1450.26,710.00
1452.18,720.00
1454.10,656.00
1456.02,646.00
1457.93,572.00
1459.85,572.00
1461.76,677.00
1463.67,699.00
1465.58,636.00
1467.49,614.00
1469.40,582.00
1471.31,604.00
1473.21,625.00
1475.11,604.00
1477.02,593.00
1478.92,614.00
1480.82,571.00
1482.72,614.00
1484.61,677.00
1486.51,635.00
1488.40,572.00
1490.30,561.00
1492.19,604.00
1494.08,624.00
1495.97,582.00
1497.86,593.00
1499.74,593.00
1501.63,572.00
1503.51,593.00
1505.40,572.00
1507.28,583.00
1509.16,593.00
1511.04,593.00
1512.92,625.00
1514.79,615.00
1516.67,593.00
1518.54,582.00
1520.42,572.00
1522.29,614.00
1524.16,593.00
1526.03,519.00
1527.89,529.00
1529.76,572.00
1531.63,593.00
1533.49,572.00
1535.35,529.00
1537.21,519.00
1539.07,540.00
1540.93,604.00
1542.79,572.00
1544.65,614.00
1546.50,562.00
1548.36,529.00
1550.21,498.00
1552.06,466.00
1553.91,455.00
1555.76,455.00
1557.61,519.00
1559.45,561.00
1561.30,519.00
1563.14,508.00
1564.98,593.00
1566.82,582.00
1568.67,519.00
1570.50,487.00
1572.34,540.00
1574.18,582.00
1576.01,582.00
1577.85,519.00
1579.68,509.00
1581.51,487.00
1583.34,456.00
1585.17,540.00
1587.00,530.00
1588.82,550.00
1590.65,550.00
1592.47,561.00
1594.30,561.00
1596.12,614.00
1597.94,562.00
1599.76,508.00
1601.57,487.00
1603.39,465.00
1605.21,508.00
1607.02,509.00
1608.83,466.00
1610.64,519.00
1612.45,519.00
1614.26,529.00
1616.07,487.00
1617.88,487.00
1619.68,529.00
1621.49,529.00
1623.29,498.00
1625.09,445.00
1626.89,498.00
1628.69,487.00
1630.49,487.00
1632.29,540.00
1634.08,540.00
1635.88,508.00
1637.67,445.00
1639.46,477.00
1641.25,551.00
1643.04,497.00
1644.83,466.00
1646.62,487.00
1648.41,455.00
1650.19,456.00
1651.97,508.00
1653.76,540.00
1655.54,509.00
1657.32,455.00
1659.10,423.00
1660.88,498.00
1662.65,497.00
1664.43,466.00
1666.20,476.00
1667.97,487.00
1669.75,444.00
1671.52,445.00
1673.29,424.00
1675.05,392.00
1676.82,402.00
1678.59,402.00
1680.35,455.00
1682.11,392.00
1683.88,360.00
1685.64,391.00
1687.40,413.00
1689.16,360.00
1690.91,360.00
1692.67,402.00
1694.42,423.00
1696.18,424.00
1697.93,370.00
1699.68,339.00
1701.43,423.00
1703.18,424.00
1704.93,403.00
1706.68,424.00
1708.42,423.00
1710.17,466.00
1711.91,455.00
1713.65,498.00
1715.39,487.00
1717.13,477.00
1718.87,466.00
1720.61,403.00
1722.35,381.00
1724.08,381.00
1725.81,328.00
1727.55,307.00
1729.28,413.00
1731.01,456.00
1732.74,361.00
1734.47,349.00
1736.19,360.00
1737.92,370.00
1739.64,423.00
1741.37,424.00
1743.09,424.00
1744.81,413.00
1746.53,382.00
1748.25,381.00
1749.97,371.00
1751.68,434.00
1753.40,456.00
1755.11,370.00
1756.83,360.00
1758.54,402.00
1760.25,391.00
1761.96,371.00
1763.67,381.00
1765.38,338.00
1767.08,339.00
1768.79,349.00
1770.49,360.00
1772.19,360.00
1773.90,360.00
1775.60,392.00
1777.30,413.00
1778.99,370.00
1780.69,360.00
1782.39,350.00
1784.08,328.00
1785.78,307.00
1787.47,350.00
1789.16,360.00
1790.85,350.00
1792.54,318.00
1794.23,360.00
1795.91,360.00
1797.60,381.00
1799.28,350.00
1800.97,370.00
1802.65,381.00
1804.33,318.00
1806.01,328.00
1807.69,349.00
1809.37,317.00
1811.05,329.00
1812.72,307.00
1814.40,317.00
1816.07,318.00
1817.74,349.00
1819.41,339.00
1821.08,371.00
1822.75,339.00
1824.42,265.00
1826.09,275.00
1827.75,307.00
1829.42,307.00
1831.08,285.00
1832.74,276.00
1834.40,318.00
1836.06,286.00
1837.72,307.00
1839.38,275.00
1841.04,286.00
1842.69,307.00
1844.35,254.00
1846.00,254.00
1847.65,286.00
1849.30,275.00
1850.95,297.00
1852.60,339.00
1854.25,339.00
1855.90,318.00
1857.54,286.00
1859.19,297.00
1860.83,254.00
1862.47,233.00
1864.12,201.00
1865.76,222.00
1867.40,328.00
1869.03,328.00
1870.67,286.00
1872.31,317.00
1873.94,339.00
1875.57,317.00
1877.21,276.00
1878.84,296.00
1880.47,276.00
1882.10,286.00
1883.73,286.00
1885.35,307.00
1886.98,339.00
1888.61,328.00
1890.23,254.00
1891.85,265.00
1893.47,307.00
1895.09,297.00
1896.71,308.00
1898.33,339.00
1899.95,286.00
1901.57,254.00
1903.18,297.00
1904.80,307.00
1906.41,318.00
1908.02,317.00
1909.63,297.00
1911.24,275.00
1912.85,233.00
1914.46,254.00
1916.07,244.00
1917.67,265.00
1919.28,275.00
1920.88,254.00
1922.48,233.00
1924.08,286.00
1925.68,296.00
1927.28,286.00
1928.88,254.00
1930.48,255.00
1932.07,254.00
1933.67,201.00
1935.26,211.00
1936.86,233.00
1938.45,265.00
1940.04,264.00
1941.63,233.00
1943.22,307.00
1944.80,318.00
1946.39,328.00
1947.98,286.00
1949.56,275.00
1951.14,275.00
1952.73,244.00
1954.31,265.00
1955.89,254.00
1957.47,170.00
1959.05,190.00
1960.62,180.00
1962.20,275.00
1963.77,276.00
1965.35,233.00
1966.92,275.00
1968.49,255.00
1970.06,254.00
1971.63,308.00
1973.20,276.00
1974.77,180.00
1976.34,201.00
1977.90,233.00
1979.47,233.00
1981.03,201.00
1982.59,254.00
1984.15,244.00
1985.71,244.00
1987.27,212.00
1988.83,212.00
1990.39,212.00
1991.94,191.00
1993.50,233.00
1995.05,317.00
1996.61,286.00
1998.16,254.00
1999.71,275.00
2001.26,190.00
2002.81,212.00
2004.36,265.00
2005.91,254.00
2007.45,243.00
2009.00,222.00
2010.54,201.00
2012.08,255.00
2013.62,254.00
2015.17,244.00
2016.71,254.00
2018.24,211.00
2019.78,233.00
2021.32,265.00
2022.85,276.00
2024.39,211.00
2025.92,222.00
2027.46,255.00
2028.99,254.00
2030.52,286.00
2032.05,265.00
2033.58,254.00
2035.10,244.00
2036.63,265.00
2038.16,222.00
2039.68,255.00
2041.21,243.00
2042.73,254.00
2044.25,286.00
2045.77,254.00
2047.29,201.00
2048.81,222.00
2050.33,233.00
2051.84,191.00
2053.36,212.00
2054.87,254.00
2056.39,212.00
2057.90,180.00
2059.41,222.00
2060.92,275.00
2062.43,286.00
2063.94,222.00
2065.45,201.00
2066.95,191.00
2068.46,190.00
2069.96,148.00
2071.47,190.00
2072.97,191.00
2074.47,212.00
2075.97,201.00
2077.47,169.00
2078.97,137.00
2080.47,180.00
2081.96,170.00
2083.46,180.00
2084.95,170.00
2086.45,180.00
2087.94,233.00
2089.43,265.00
2090.92,243.00
2092.41,201.00
2093.90,148.00
2095.39,159.00
2096.88,180.00
2098.36,180.00
2099.85,211.00
2101.33,223.00
2102.81,233.00
2104.30,222.00
2105.78,233.00
2107.26,264.00
2108.74,243.00
2110.21,201.00
2111.69,201.00
2113.17,169.00
2114.64,127.00
2116.12,169.00
2117.59,222.00
2119.06,243.00
2120.53,286.00
2122.00,244.00
2123.47,233.00
2124.94,244.00
2126.41,212.00
2127.87,222.00
2129.34,148.00
2130.80,170.00
2132.27,180.00
2133.73,191.00
2135.19,158.00
2136.65,191.00
2138.11,180.00
2139.57,191.00
2141.03,222.00
2142.48,191.00
2143.94,148.00
2145.39,138.00
2146.85,201.00
2148.30,190.00
2149.75,170.00
2151.20,180.00
2152.65,170.00
2154.10,191.00
2155.55,170.00
2157.00,169.00
2158.44,148.00
2159.89,201.00
2161.33,190.00
2162.78,190.00
2164.22,180.00
2165.66,74.00
2167.10,106.00
2168.54,127.00
2169.98,169.00
2171.42,191.00
2172.85,212.00
2174.29,180.00
2175.72,212.00
2177.16,180.00
2178.59,137.00
2180.02,148.00
2181.45,169.00
2182.88,180.00
2184.31,212.00
2185.74,201.00
2187.17,169.00
2188.59,148.00
2190.02,138.00
2191.44,170.00
2192.87,170.00
2194.29,148.00
2195.71,149.00
2197.13,180.00
2198.55,170.00
2199.97,191.00
2201.39,169.00
2202.81,170.00
2204.22,169.00
2205.64,138.00
2207.05,106.00
2208.46,127.00
2209.88,233.00
2211.29,222.00
2212.70,202.00
2214.11,180.00
2215.52,127.00
2216.92,138.00
2218.33,159.00
2219.74,180.00
2221.14,127.00
2222.54,148.00
2223.95,159.00
2225.35,127.00
2226.75,169.00
2228.15,190.00
2229.55,116.00
2230.95,127.00
2232.35,117.00
2233.74,159.00
2235.14,138.00
2236.53,159.00
2237.93,180.00
2239.32,180.00
2240.71,127.00
2242.10,106.00
2243.49,148.00
2244.88,128.00
2246.27,148.00
2247.66,148.00
2249.04,137.00
2250.43,149.00
2251.81,138.00
2253.20,127.00
2254.58,169.00
2255.96,149.00
2257.34,170.00
2258.72,190.00
2260.10,191.00
2261.48,159.00
2262.86,148.00
2264.23,170.00
2265.61,169.00
2266.98,127.00
2268.36,96.00
2269.73,127.00
2271.10,138.00
2272.47,85.00
2273.84,106.00
2275.21,106.00
2276.58,95.00
2277.95,137.00
2279.31,127.00
2280.68,127.00
2282.05,128.00
2283.41,127.00
2284.77,180.00
2286.13,138.00
2287.50,138.00
2288.86,170.00
2290.22,191.00
2291.57,170.00
2292.93,116.00
2294.29,137.00
2295.64,106.00
2297.00,85.00
2298.35,159.00
2299.71,191.00
2301.06,159.00
2302.41,127.00
2303.76,170.00
2305.11,180.00
2306.46,149.00
2307.81,170.00
2309.15,148.00
2310.50,127.00
2311.84,127.00
2313.19,127.00
2314.53,159.00
2315.87,116.00
2317.22,106.00
2318.56,148.00
2319.90,148.00
2321.24,127.00
2322.57,117.00
2323.91,116.00
2325.25,137.00
2326.58,180.00
2327.92,148.00
2329.25,116.00
2330.58,116.00
2331.91,106.00
2333.25,137.00
2334.58,169.00
2335.90,149.00
2337.23,127.00
2338.56,127.00
2339.89,127.00
2341.21,116.00
2342.54,169.00
2343.86,159.00
2345.19,191.00
2346.51,201.00
2347.83,138.00
2349.15,127.00
2350.47,95.00
2351.79,84.00
2353.11,127.00
2354.42,149.00
2355.74,128.00
2357.06,158.00
2358.37,191.00
2359.68,170.00
2361.00,137.00
2362.31,106.00
2363.62,127.00
2364.93,127.00
2366.24,95.00
2367.55,127.00
2368.86,128.00
2370.16,170.00
2371.47,148.00
2372.77,149.00
2374.08,222.00
2375.38,148.00
2376.68,116.00
2377.98,127.00
2379.29,137.00
2380.59,85.00
2381.88,74.00
2383.18,74.00
2384.48,95.00
2385.78,95.00
2387.07,95.00
2388.37,85.00
2389.66,74.00
2390.95,137.00
2392.25,95.00
2393.54,63.00
2394.83,106.00
2396.12,95.00
2397.41,85.00
2398.70,137.00
2399.98,159.00
2401.27,127.00
2402.55,127.00
2403.84,106.00
2405.12,95.00
2406.41,127.00
2407.69,159.00
2408.97,116.00
2410.25,106.00
2411.53,63.00
2412.81,63.00
2414.09,85.00
2415.36,85.00
2416.64,106.00
2417.91,84.00
2419.19,85.00
2420.46,85.00
2421.74,64.00
2423.01,85.00
2424.28,84.00
2425.55,106.00
2426.82,84.00
2428.09,74.00
2429.36,52.00
2430.62,85.00
2431.89,74.00
2433.15,85.00
2434.42,159.00
2435.68,106.00
2436.94,158.00
2438.21,180.00
2439.47,148.00
2440.73,63.00
2441.99,32.00
2443.25,42.00
2444.51,75.00
2445.76,85.00
2447.02,85.00
2448.27,85.00
2449.53,106.00
2450.78,137.00
2452.03,137.00
2453.29,117.00
2454.54,117.00
2455.79,117.00
2457.04,106.00
2458.29,85.00
2459.54,53.00
2460.78,42.00
2462.03,74.00
2463.27,95.00
2464.52,128.00
2465.76,95.00
2467.01,85.00
2468.25,116.00
2469.49,106.00
2470.73,95.00
2471.97,53.00
2473.21,53.00
2474.45,85.00
2475.69,96.00
2476.92,43.00
2478.16,64.00
2479.39,117.00
2480.63,117.00
2481.86,117.00
2483.09,96.00
2484.32,138.00
2485.56,74.00
2486.79,64.00
2488.02,64.00
2489.24,85.00
2490.47,106.00
2491.70,96.00
2492.92,85.00
2494.15,53.00
2495.37,22.00
2496.60,106.00
2497.82,117.00
2499.04,117.00
2500.26,64.00
2501.48,127.00
2502.70,170.00
2503.92,106.00
2505.14,106.00
2506.36,84.00
2507.58,85.00
2508.79,106.00
2510.01,117.00
2511.22,74.00
2512.43,52.00
2513.64,63.00
2514.86,74.00
2516.07,84.00
2517.28,85.00
2518.49,64.00
2519.70,74.00
2520.90,43.00
2522.11,42.00
2523.32,0.00
2524.52,21.00
2525.73,106.00
2526.93,64.00
2528.13,42.00
2529.33,84.00
2530.54,116.00
2531.74,106.00
2532.94,127.00
2534.14,74.00
2535.33,63.00
2536.53,31.00
2537.73,85.00
2538.92,74.00
2540.12,43.00
2541.31,64.00
2542.51,85.00
2543.70,31.00
2544.89,42.00
2546.08,96.00
2547.27,106.00
2548.46,85.00
2549.65,64.00
2550.84,63.00
2552.03,64.00
2553.21,53.00
2554.40,53.00
2555.58,43.00
2556.77,63.00
2557.95,85.00
2559.13,85.00
2560.31,74.00
2561.50,43.00
2562.68,32.00
2563.85,63.00
2565.03,32.00
2566.21,52.00
2567.39,85.00
2568.56,84.00
2569.74,85.00
2570.91,74.00
2572.09,21.00
2573.26,21.00
2574.43,42.00
2575.61,53.00
2576.78,42.00
2577.95,42.00
2579.12,32.00
2580.29,53.00
2581.45,21.00
2582.62,43.00
2583.79,85.00
2584.95,63.00
2586.12,-11.00
2587.28,43.00
2588.44,106.00
2589.61,53.00
2590.77,75.00
2591.93,21.00
2593.09,63.00
2594.25,74.00
2595.41,53.00
2596.56,52.00
2597.72,43.00
2598.88,42.00
2600.03,85.00
2601.19,127.00
2602.34,106.00
2603.50,64.00
2604.65,74.00
2605.80,43.00
2606.95,74.00
2608.10,42.00
2609.25,63.00
2610.40,74.00
2611.55,63.00
2612.70,43.00
2613.84,10.00
2614.99,10.00
2616.13,21.00
2617.28,0.00
2618.42,11.00
2619.56,53.00
2620.71,106.00
2621.85,64.00
2622.99,74.00
2624.13,74.00
2625.27,85.00
2626.40,22.00
2627.54,63.00
2628.68,116.00
2629.81,74.00
2630.95,42.00
2632.08,42.00
2633.22,32.00
2634.35,22.00
2635.48,0.00
2636.61,63.00
2637.74,75.00
2638.87,32.00
2640.00,84.00
2641.13,64.00
2642.26,21.00
2643.39,52.00
2644.51,10.00
2645.64,-21.00
2646.76,11.00
2647.89,11.00
2649.01,32.00
2650.13,53.00
2651.25,63.00
2652.38,42.00
2653.50,32.00
2654.62,42.00
2655.73,42.00
2656.85,53.00
2657.97,64.00
2659.09,84.00
2660.20,85.00
2661.32,42.00
2662.43,11.00
2663.55,0.00
2664.66,42.00
2665.77,43.00
2666.88,74.00
2667.99,11.00
2669.10,0.00
2670.21,0.00
2671.32,11.00
2672.43,0.00
2673.54,42.00
2674.64,64.00
2675.75,32.00
2676.85,42.00
2677.96,43.00
2679.06,63.00
2680.16,64.00
2681.26,31.00
2682.37,63.00
2683.47,64.00
2684.57,22.00
2685.66,105.00
2686.76,63.00
2687.86,42.00
2688.96,64.00
2690.05,64.00
2691.15,43.00
2692.24,32.00
2693.34,52.00
2694.43,52.00
2695.52,84.00
2696.62,85.00
2697.71,63.00
2698.80,32.00
2699.89,42.00
2700.98,21.00
2702.06,21.00
2703.15,63.00
2704.24,95.00
2705.32,85.00
2706.41,32.00
2707.49,63.00
2708.58,32.00
2709.66,43.00
2710.74,63.00
2711.83,127.00
2712.91,84.00
2713.99,53.00
2715.07,11.00
2716.15,-11.00
2717.22,-42.00
2718.30,11.00
2719.38,32.00
2720.45,32.00
2721.53,85.00
2722.60,64.00
2723.68,32.00
2724.75,21.00
2725.82,64.00
2726.89,106.00
2727.97,53.00
2729.04,11.00
2730.11,63.00
2731.17,64.00
2732.24,53.00
2733.31,52.00
2734.38,0.00
2735.44,105.00
2736.51,75.00
2737.57,21.00
2738.64,21.00
2739.70,21.00
2740.76,0.00
2741.82,43.00
2742.89,74.00
2743.95,53.00
2745.01,53.00
2746.07,21.00
2747.12,11.00
2748.18,0.00
2749.24,0.00
2750.29,-42.00
2751.35,21.00
2752.40,74.00
2753.46,43.00
2754.51,42.00
2755.57,53.00
2756.62,31.00
2757.67,53.00
2758.72,42.00
2759.77,52.00
2760.82,43.00
2761.87,63.00
2762.91,53.00
2763.96,85.00
2765.01,64.00
2766.05,32.00
2767.10,85.00
2768.14,64.00
2769.19,21.00
2770.23,10.00
2771.27,10.00
2772.31,64.00
2773.35,64.00
2774.40,64.00
2775.43,21.00
2776.47,53.00
2777.51,63.00
2778.55,0.00
2779.59,-10.00
2780.62,11.00
2781.66,11.00
2782.69,53.00
2783.73,32.00
2784.76,10.00
2785.79,21.00
2786.82,21.00
2787.85,63.00
2788.89,42.00
2789.92,53.00
2790.94,0.00
2791.97,10.00
2793.00,21.00
2794.03,0.00
2795.05,-32.00
2796.08,-10.00
2797.11,42.00
2798.13,53.00
2799.15,31.00
2800.18,-11.00
2801.20,-42.00
2802.22,-32.00
2803.24,-11.00
2804.26,21.00
2805.28,53.00
2806.30,43.00
2807.32,0.00
2808.34,52.00
2809.35,74.00
2810.37,32.00
2811.39,0.00
2812.40,32.00
2813.41,95.00
2814.43,96.00
2815.44,95.00
2816.45,21.00
2817.46,43.00
2818.48,63.00
2819.49,42.00
2820.49,21.00
2821.50,0.00
2822.51,-11.00
2823.52,-53.00
2824.53,0.00
2825.53,64.00
2826.54,43.00
2827.54,-22.00
2828.55,21.00
2829.55,43.00
2830.55,10.00
2831.55,32.00
2832.56,64.00
2833.56,42.00
2834.56,10.00
2835.56,0.00
2836.56,11.00
2837.55,63.00
2838.55,21.00
2839.55,-21.00
2840.54,53.00
2841.54,22.00
2842.53,0.00
2843.53,0.00
2844.52,43.00
2845.51,22.00
2846.51,32.00
2847.50,42.00
2848.49,-21.00
2849.48,-21.00
2850.47,22.00
2851.46,42.00
2852.45,0.00
2853.43,42.00
2854.42,-11.00
2855.41,21.00
2856.39,32.00
2857.38,0.00
2858.36,21.00
2859.34,42.00
2860.33,21.00
2861.31,21.00
2862.29,0.00
2863.27,0.00
2864.25,53.00
2865.23,42.00
2866.21,42.00
2867.19,42.00
2868.17,21.00
2869.14,32.00
2870.12,0.00
2871.09,31.00
2872.07,53.00
2873.04,75.00
2874.02,85.00
2874.99,0.00
2875.96,-21.00
2876.93,63.00
2877.91,31.00
2878.88,10.00
2879.85,21.00
2880.82,53.00
2881.78,32.00
2882.75,0.00
2883.72,-22.00
2884.69,42.00
2885.65,64.00
2886.62,53.00
2887.58,32.00
2888.55,-21.00
2889.51,-21.00
2890.47,0.00
2891.43,52.00
2892.39,53.00
2893.36,32.00
2894.31,21.00
2895.27,10.00
2896.23,52.00
2897.19,43.00
2898.15,32.00
2899.11,42.00
2900.06,21.00
2901.02,32.00
2901.97,85.00
2902.93,75.00
2903.88,42.00
2904.83,10.00
2905.79,0.00
2906.74,0.00
2907.69,0.00
2908.64,10.00
2909.59,10.00
2910.54,32.00
2911.49,0.00
2912.43,21.00
2913.38,42.00
2914.33,32.00
2915.27,43.00
2916.22,0.00
2917.16,11.00
2918.11,31.00
2919.05,10.00
2919.99,-10.00
2920.94,21.00
2921.88,32.00
2922.82,21.00
2923.76,-31.00
2924.70,-43.00
2925.64,0.00
2926.58,0.00
2927.51,-21.00
2928.45,-63.00
2929.39,21.00
2930.32,43.00
2931.26,0.00
2932.19,21.00
2933.13,0.00
2934.06,10.00
2934.99,0.00
2935.92,-21.00
2936.86,21.00
2937.79,32.00
2938.72,53.00
2939.65,63.00
2940.57,0.00
2941.50,-42.00
2942.43,11.00
2943.36,0.00
2944.28,-21.00
2945.21,0.00
2946.13,21.00
2947.06,-11.00
2947.98,11.00
2948.91,0.00
2949.83,11.00
2950.75,43.00
2951.67,42.00
2952.59,43.00
2953.51,11.00
2954.43,0.00
2955.35,-21.00
2956.27,10.00
2957.19,32.00
2958.10,11.00
2959.02,10.00
2959.94,53.00
2960.85,0.00
2961.77,-21.00
2962.68,32.00
2963.59,43.00
2964.51,-11.00
2965.42,0.00
2966.33,-21.00
2967.24,-43.00
2968.15,-10.00
2969.06,-53.00
2969.97,-21.00
2970.88,0.00
2971.78,43.00
2972.69,22.00
2973.60,-32.00
2974.50,21.00
2975.41,-10.00
2976.31,-11.00
2977.22,0.00
2978.12,11.00
2979.02,32.00
2979.93,0.00
2980.83,-43.00
2981.73,10.00
2982.63,21.00
2983.53,42.00
2984.43,-21.00
2985.33,-32.00
2986.22,-11.00
2987.12,53.00
2988.02,95.00
2988.91,10.00
2989.81,-52.00
2990.70,-31.00
2991.60,-11.00
2992.49,11.00
2993.38,-11.00
2994.28,0.00
2995.17,10.00
2996.06,-21.00
2996.95,-53.00
2997.84,0.00
2998.73,-21.00
2999.62,-43.00
3000.51,10.00
3001.40,-10.00
3002.28,21.00
3003.17,64.00
3004.05,21.00
3004.94,0.00
3005.82,21.00
3006.71,0.00
3007.59,0.00
3008.47,-32.00
3009.36,-22.00
3010.24,21.00
3011.12,32.00
3012.00,53.00
3012.88,43.00
3013.76,21.00
3014.64,53.00
3015.51,31.00
3016.39,-21.00
3017.27,-10.00
3018.14,43.00
3019.02,43.00
3019.89,42.00
3020.77,-10.00
3021.64,-21.00
3022.52,0.00
3023.39,32.00
3024.26,0.00
3025.13,21.00
3026.00,21.00
3026.87,-11.00
3027.74,-32.00
3028.61,10.00
3029.48,32.00
3030.35,10.00
3031.21,0.00
3032.08,0.00
3032.95,-42.00
3033.81,-11.00
3034.68,10.00
3035.54,42.00
3036.40,84.00
3037.27,22.00
3038.13,-42.00
3038.99,-11.00
3039.85,11.00
3040.71,21.00
3041.57,31.00
3042.43,-11.00
3043.29,-43.00
3044.15,-53.00
3045.01,21.00
3045.86,21.00
3046.72,32.00
3047.58,42.00
3048.43,42.00
3049.29,32.00
3050.14,0.00
3050.99,-22.00
3051.85,-21.00
3052.70,-11.00
3053.55,11.00
3054.40,0.00
3055.25,0.00
3056.10,11.00
3056.95,22.00
3057.80,21.00
3058.65,21.00
3059.50,-11.00
3060.34,-10.00
3061.19,21.00
3062.04,53.00
3062.88,64.00
3063.73,53.00
3064.57,32.00
3065.42,21.00
3066.26,10.00
3067.10,-21.00
3067.94,-63.00
3068.78,-22.00
3069.63,53.00
3070.47,42.00
3071.31,-21.00
3072.14,-11.00
3072.98,21.00
3073.82,32.00
3074.66,0.00
3075.49,-42.00
3076.33,-42.00
3077.17,0.00
3078.00,0.00
3078.83,31.00
3079.67,63.00
3080.50,11.00
3081.33,-11.00
3082.17,-63.00
3083.00,-105.00
3083.83,-42.00
3084.66,21.00
3085.49,21.00
3086.32,0.00
3087.15,0.00
3087.97,0.00
3088.80,-32.00
3089.63,-21.00
3090.46,-11.00
3091.28,-22.00
3092.11,21.00
3092.93,53.00
3093.75,53.00
3094.58,22.00
3095.40,11.00
3096.22,32.00
3097.05,32.00
3097.87,21.00
3098.69,63.00
3099.51,0.00
3100.33,-21.00
3101.15,-31.00
3101.96,63.00
3102.78,32.00
3103.60,21.00
3104.42,10.00
3105.23,-32.00
3106.05,-43.00
3106.86,22.00
3107.68,0.00
3108.49,32.00
3109.30,32.00
3110.12,-11.00
3110.93,0.00
3111.74,0.00
3112.55,10.00
3113.36,42.00
3114.17,-21.00
3114.98,0.00
3115.79,21.00
3116.60,0.00
3117.40,-43.00
3118.21,-21.00
3119.02,52.00
3119.82,32.00
3120.63,42.00
3121.43,42.00
3122.24,53.00
3123.04,64.00
3123.84,42.00
3124.65,-11.00
3125.45,-11.00
3126.25,0.00
3127.05,-21.00
3127.85,53.00
3128.65,53.00
3129.45,52.00
3130.25,32.00
3131.05,-21.00
3131.84,-53.00
3132.64,-42.00
3133.44,-42.00
3134.23,0.00
3135.03,11.00
3135.82,11.00
3136.62,53.00
3137.41,-11.00
3138.20,-42.00
3139.00,-32.00
3139.79,0.00
3140.58,-32.00
3141.37,-21.00
3142.16,0.00
3142.95,11.00
3143.74,10.00
3144.53,-21.00
3145.32,-31.00
3146.10,11.00
3146.89,-32.00
3147.68,22.00
3148.46,-32.00
3149.25,-42.00
3150.03,0.00
3150.82,10.00
3151.60,0.00
3152.38,32.00
3153.17,53.00
3153.95,74.00
3154.73,32.00
3155.51,0.00
3156.29,31.00
3157.07,84.00
3157.85,11.00
3158.63,-43.00
3159.41,0.00
3160.18,0.00
3160.96,21.00
3161.74,22.00
3162.51,-21.00
3163.29,0.00
3164.06,21.00
3164.84,32.00
3165.61,-21.00
3166.38,-32.00
3167.16,-21.00
3167.93,42.00
3168.70,32.00
3169.47,22.00
3170.24,22.00
3171.01,0.00
3171.78,11.00
3172.55,21.00
3173.32,21.00
3174.09,21.00
3174.85,0.00
3175.62,-21.00
3176.39,-10.00
3177.15,42.00
3177.92,42.00
3178.68,0.00
3179.45,32.00
3180.21,63.00
3180.97,42.00
3181.73,21.00
3182.50,0.00
3183.26,-32.00
3184.02,-43.00
3184.78,31.00
3185.54,10.00
3186.30,-32.00
3187.05,21.00
3187.81,32.00
3188.57,-11.00
3189.33,-10.00
3190.08,-43.00
3190.84,-10.00
3191.59,-53.00
3192.35,-96.00
3193.10,-42.00
3193.86,22.00
3194.61,53.00
3195.36,85.00
3196.12,-11.00
3196.87,-10.00
3197.62,11.00
3198.37,32.00
3199.12,32.00
3199.87,22.00
3200.62,42.00
3201.36,-42.00
3202.11,-32.00
3202.86,31.00
3203.61,0.00
3204.35,-21.00
3205.10,-10.00
3205.84,-32.00
3206.59,-32.00
3207.33,21.00
3208.08,21.00
3208.82,42.00
3209.56,0.00
3210.30,0.00
3211.05,-11.00
3211.79,-74.00
3212.53,-21.00
3213.27,0.00
3214.01,-11.00
3214.75,11.00
3215.48,0.00
3216.22,0.00
3216.96,0.00
3217.69,-21.00
3218.43,0.00
3219.17,-11.00
3219.90,42.00
3220.64,21.00
3221.37,-42.00
3222.10,-32.00
3222.84,-43.00
3223.57,-42.00
3224.30,-22.00
3225.03,-10.00
3225.76,10.00
3226.49,0.00
3227.22,-42.00
3227.95,-42.00
3228.68,32.00
3229.41,-21.00
3230.14,10.00
3230.87,10.00
3231.59,0.00
3232.32,42.00
3233.04,43.00
3233.77,53.00
3234.49,32.00
3235.22,32.00
3235.94,32.00
3236.66,-11.00
3237.39,-53.00
3238.11,-63.00
3238.83,32.00
3239.55,42.00
3240.27,21.00
3240.99,43.00
3241.71,43.00
3242.43,0.00
3243.15,0.00
3243.87,11.00
3244.58,0.00
3245.30,32.00
3246.02,42.00
3246.73,-10.00
3247.45,63.00
3248.16,64.00
3248.88,10.00
3249.59,0.00
3250.30,42.00
3251.01,32.00
3251.73,11.00
3252.44,11.00
3253.15,11.00
3253.86,-21.00
3254.57,-22.00
3255.28,21.00
3255.99,85.00
3256.70,32.00
3257.41,11.00
3258.11,-10.00
3258.82,11.00
3259.53,11.00
3260.23,-21.00
3260.94,21.00
3261.64,11.00
3262.35,10.00
3263.05,-31.00
3263.76,-21.00
3264.46,0.00
3265.16,0.00
3265.86,0.00
3266.56,-11.00
3267.26,0.00
3267.97,21.00
3268.67,43.00
3269.36,64.00
3270.06,74.00
3270.76,22.00
3271.46,-11.00
3272.16,-32.00
3272.85,0.00
