RamanShift,Intensity
180.91,254.00
183.74,307.00
186.56,349.00
189.39,444.00
192.21,656.00
195.03,868.00
197.84,1239.00
200.66,1705.00
203.47,2171.00
206.28,2700.00
209.09,3123.00
211.89,3515.00
214.70,3781.00
217.50,4003.00
220.30,4172.00
223.10,4257.00
225.89,4395.00
228.69,4501.00
231.48,4426.00
234.27,4363.00
237.05,4479.00
239.84,4553.00
242.62,4553.00
245.40,4607.00
248.18,4553.00
250.96,4426.00
253.73,4257.00
256.51,4162.00
259.28,4140.00
262.05,4119.00
264.81,4035.00
267.58,4076.00
270.34,4056.00
273.10,4034.00
275.86,3993.00
278.61,4077.00
281.37,4098.00
284.12,3970.00
286.87,3981.00
289.62,4003.00
292.36,3950.00
295.11,3844.00
297.85,3812.00
300.59,3907.00
303.33,4055.00
306.06,4077.00
308.80,4035.00
311.53,4035.00
314.26,3918.00
316.99,3854.00
319.71,3834.00
322.44,3865.00
325.16,3886.00
327.88,3897.00
330.59,3844.00
333.31,3992.00
336.02,3982.00
338.73,3822.00
341.44,3854.00
344.15,3770.00
346.86,3759.00
349.56,3929.00
352.26,4077.00
354.96,3971.00
357.66,3897.00
360.35,3971.00
363.05,4024.00
365.74,4024.00
368.43,4035.00
371.12,4056.00
373.80,4067.00
376.48,4077.00
379.17,4045.00
381.85,4141.00
384.52,4162.00
387.20,4109.00
389.87,4055.00
392.54,4035.00
395.21,4056.00
397.88,4120.00
400.55,4076.00
403.21,4098.00
405.87,4119.00
408.53,4034.00
411.19,3981.00
413.84,3950.00
416.50,3918.00
419.15,4024.00
421.80,4077.00
424.45,4013.00
427.10,3939.00
429.74,3939.00
432.38,4013.00
435.02,4141.00
437.66,4119.00
440.30,4003.00
442.93,4003.00
445.56,3971.00
448.19,4098.00
450.82,4055.00
453.45,3939.00
456.07,3971.00
458.70,4024.00
461.32,4034.00
463.94,3939.00
466.55,4045.00
469.17,4088.00
471.78,4098.00
474.39,4056.00
477.00,4045.00
479.61,4109.00
482.22,4066.00
484.82,3971.00
487.42,4056.00
490.02,4067.00
492.62,4013.00
495.21,4003.00
497.81,4067.00
500.40,4066.00
502.99,3992.00
505.58,3929.00
508.17,4002.00
510.75,4087.00
513.33,3940.00
515.91,3929.00
518.49,3907.00
521.07,3960.00
523.65,4034.00
526.22,3961.00
528.79,3886.00
531.36,3854.00
533.93,3928.00
536.49,3939.00
539.06,3876.00
541.62,3875.00
544.18,3791.00
546.74,3770.00
549.30,3886.00
551.85,4002.00
554.40,3918.00
556.95,3844.00
559.50,3812.00
562.05,3770.00
564.59,3865.00
567.14,3770.00
569.68,3812.00
572.22,3833.00
574.76,3759.00
577.29,3695.00
579.83,3695.00
582.36,3738.00
584.89,3738.00
587.42,3802.00
589.95,3801.00
592.47,3707.00
594.99,3738.00
597.52,3780.00
600.04,3706.00
602.55,3653.00
605.07,3801.00
607.58,3812.00
610.09,3674.00
612.60,3663.00
615.11,3706.00
617.62,3653.00
620.12,3611.00
622.63,3664.00
625.13,3717.00
627.63,3643.00
630.13,3558.00
632.62,3558.00
635.12,3664.00
637.61,3589.00
640.10,3611.00
642.59,3558.00
645.07,3495.00
647.56,3463.00
650.04,3442.00
652.52,3421.00
655.00,3526.00
657.48,3589.00
659.96,3611.00
662.43,3495.00
664.90,3484.00
667.37,3505.00
669.84,3452.00
672.31,3505.00
674.78,3526.00
677.24,3442.00
679.70,3462.00
682.16,3484.00
684.62,3484.00
687.08,3473.00
689.53,3325.00
691.98,3367.00
694.43,3378.00
696.88,3325.00
699.33,3283.00
701.78,3272.00
704.22,3314.00
706.66,3314.00
709.10,3378.00
711.54,3209.00
713.98,3229.00
716.42,3356.00
718.85,3325.00
721.28,3315.00
723.71,3389.00
726.14,3462.00
728.57,3473.00
730.99,3600.00
733.41,3579.00
735.83,3505.00
738.25,3505.00
740.67,3430.00
743.09,3272.00
745.50,3145.00
747.91,3145.00
750.33,3155.00
752.73,3166.00
755.14,3145.00
757.55,3071.00
759.95,3049.00
762.35,3123.00
764.75,3092.00
767.15,3114.00
769.55,3070.00
771.95,3071.00
774.34,3092.00
776.73,3155.00
779.12,3208.00
781.51,3156.00
783.90,3102.00
786.28,2997.00
788.67,2997.00
791.05,3124.00
793.43,3103.00
795.80,3124.00
798.18,3113.00
800.56,3081.00
802.93,2955.00
805.30,2912.00
807.67,2922.00
810.04,2848.00
812.40,2848.00
814.77,2934.00
817.13,2943.00
819.49,2986.00
821.85,2870.00
824.21,2849.00
826.57,2806.00
828.92,2742.00
831.27,2721.00
833.63,2838.00
835.98,2955.00
838.32,2796.00
840.67,2753.00
843.01,2764.00
845.36,2732.00
847.70,2796.00
850.04,2816.00
852.37,2859.00
854.71,2732.00
857.05,2689.00
859.38,2637.00
861.71,2626.00
864.04,2679.00
866.37,2742.00
868.69,2753.00
871.02,2764.00
873.34,2838.00
875.66,2753.00
877.98,2743.00
880.30,2827.00
882.62,2838.00
884.93,2774.00
887.24,2764.00
889.55,2700.00
891.86,2689.00
894.17,2637.00
896.48,2626.00
898.78,2616.00
901.09,2658.00
903.39,2711.00
905.69,2636.00
907.99,2616.00
910.28,2615.00
912.58,2573.00
914.87,2637.00
917.16,2552.00
919.45,2616.00
921.74,2626.00
924.03,2636.00
926.31,2605.00
928.60,2689.00
930.88,2700.00
933.16,2657.00
935.44,2595.00
937.72,2531.00
939.99,2616.00
942.26,2647.00
944.54,2605.00
946.81,2541.00
949.08,2531.00
951.34,2531.00
953.61,2489.00
955.87,2562.00
958.14,2542.00
960.40,2446.00
962.66,2488.00
964.92,2521.00
967.17,2574.00
969.43,2457.00
971.68,2425.00
973.93,2383.00
976.18,2298.00
978.43,2351.00
980.68,2446.00
982.92,2393.00
985.17,2372.00
987.41,2298.00
989.65,2340.00
991.89,2404.00
994.12,2351.00
996.36,2351.00
998.59,2340.00
1000.83,2361.00
1003.06,2277.00
1005.29,2340.00
1007.51,2362.00
1009.74,2329.00
1011.97,2382.00
1014.19,2319.00
1016.41,2341.00
1018.63,2319.00
1020.85,2234.00
1023.07,2266.00
1025.28,2298.00
1027.49,2361.00
1029.71,2340.00
1031.92,2362.00
1034.13,2297.00
1036.33,2340.00
1038.54,2340.00
1040.74,2255.00
1042.95,2256.00
1045.15,2277.00
1047.35,2266.00
1049.55,2224.00
1051.74,2203.00
1053.94,2266.00
1056.13,2287.00
1058.32,2223.00
1060.51,2266.00
1062.70,2224.00
1064.89,2161.00
1067.08,2086.00
1069.26,2150.00
1071.44,2213.00
1073.63,2161.00
1075.81,2171.00
1077.98,2182.00
1080.16,2128.00
1082.34,2107.00
1084.51,2161.00
1086.68,2192.00
1088.85,2181.00
1091.02,2107.00
1093.19,2033.00
1095.35,2107.00
1097.52,2171.00
1099.68,2097.00
1101.84,2023.00
1104.00,2023.00
1106.16,2117.00
1108.32,2129.00
1110.48,2118.00
1112.63,2150.00
1114.78,2118.00
1116.93,2033.00
1119.08,2075.00
1121.23,2097.00
1123.38,1980.00
1125.52,1991.00
1127.67,2023.00
1129.81,2012.00
1131.95,2002.00
1134.09,2044.00
1136.22,1970.00
1138.36,2033.00
1140.50,2076.00
1142.63,2022.00
1144.76,2022.00
1146.89,2022.00
1149.02,1916.00
1151.15,1917.00
1153.27,2001.00
1155.40,1969.00
1157.52,1917.00
1159.64,1938.00
1161.76,1991.00
1163.88,2012.00
1165.99,1928.00
1168.11,2001.00
1170.22,2065.00
1172.34,1980.00
1174.45,1895.00
1176.56,1875.00
1178.66,1949.00
1180.77,1927.00
1182.88,1864.00
1184.98,1917.00
1187.08,1874.00
1189.18,1821.00
1191.28,1895.00
1193.38,1842.00
1195.47,1822.00
1197.57,1768.00
1199.66,1853.00
1201.75,1917.00
1203.85,1864.00
1205.93,1821.00
1208.02,1800.00
1210.11,1832.00
1212.19,1875.00
1214.28,1938.00
1216.36,1895.00
1218.44,1885.00
1220.52,1874.00
1222.59,1874.00
1224.67,1864.00
1226.74,1800.00
1228.82,1853.00
1230.89,1885.00
1232.96,1821.00
1235.03,1864.00
1237.10,1821.00
1239.16,1790.00
1241.23,1800.00
1243.29,1810.00
1245.35,1822.00
1247.41,1821.00
1249.47,1821.00
1251.53,1821.00
1253.58,1822.00
1255.64,1811.00
1257.69,1832.00
1259.74,1758.00
1261.79,1748.00
1263.84,1822.00
1265.89,1790.00
1267.93,1779.00
1269.98,1715.00
1272.02,1673.00
1274.06,1641.00
1276.10,1663.00
1278.14,1704.00
1280.18,1736.00
1282.22,1715.00
1284.25,1715.00
1286.28,1715.00
1288.32,1726.00
1290.35,1694.00
1292.38,1652.00
1294.40,1747.00
1296.43,1705.00
1298.46,1726.00
1300.48,1769.00
1302.50,1673.00
1304.52,1747.00
1306.54,1779.00
1308.56,1663.00
1310.58,1662.00
1312.59,1758.00
1314.60,1790.00
1316.62,1758.00
1318.63,1705.00
1320.64,1673.00
1322.65,1705.00
1324.65,1768.00
1326.66,1736.00
1328.66,1779.00
1330.66,1842.00
1332.67,1864.00
1334.67,1726.00
1336.66,1673.00
1338.66,1705.00
1340.66,1684.00
1342.65,1673.00
1344.65,1662.00
1346.64,1673.00
1348.63,1642.00
1350.62,1609.00
1352.60,1557.00
1354.59,1503.00
1356.57,1631.00
1358.56,1631.00
1360.54,1630.00
1362.52,1609.00
1364.50,1567.00
1366.48,1599.00
1368.46,1546.00
1370.43,1557.00
1372.41,1557.00
1374.38,1620.00
1376.35,1631.00
1378.32,1567.00
1380.29,1525.00
1382.25,1472.00
1384.22,1535.00
1386.18,1504.00
1388.15,1557.00
1390.11,1620.00
1392.07,1589.00
1394.03,1621.00
1395.99,1557.00
1397.94,1514.00
1399.90,1577.00
1401.85,1610.00
1403.80,1651.00
1405.76,1588.00
1407.71,1652.00
1409.65,1684.00
1411.60,1557.00
1413.55,1440.00
1415.49,1483.00
1417.44,1503.00
1419.38,1567.00
1421.32,1599.00
1423.26,1482.00
1425.19,1451.00
1427.13,1472.00
1429.07,1377.00
1431.00,1398.00
1432.93,1441.00
1434.86,1482.00
1436.79,1514.00
1438.72,1440.00
1440.65,1493.00
1442.57,1450.00
1444.50,1408.00
1446.42,1493.00
1448.34,1504.00
1450.26,1472.00
1452.18,1418.00
1454.10,1387.00
1456.02,1461.00
1457.93,1388.00
1459.85,1345.00
1461.76,1355.00
1463.67,1355.00
1465.58,1376.00
1467.49,1472.00
1469.40,1472.00
1471.31,1387.00
1473.21,1430.00
1475.11,1440.00
1477.02,1429.00
1478.92,1388.00
1480.82,1334.00
1482.72,1324.00
1484.61,1323.00
1486.51,1345.00
1488.40,1323.00
1490.30,1313.00
1492.19,1313.00
1494.08,1398.00
1495.97,1461.00
1497.86,1356.00
1499.74,1176.00
1501.63,1134.00
1503.51,1239.00
1505.40,1292.00
1507.28,1260.00
1509.16,1271.00
1511.04,1292.00
1512.92,1366.00
1514.79,1281.00
1516.67,1281.00
1518.54,1334.00
1520.42,1409.00
1522.29,1376.00
1524.16,1324.00
1526.03,1334.00
1527.89,1313.00
1529.76,1324.00
1531.63,1334.00
1533.49,1292.00
1535.35,1186.00
1537.21,1238.00
1539.07,1344.00
1540.93,1303.00
1542.79,1229.00
1544.65,1228.00
1546.50,1218.00
1548.36,1270.00
1550.21,1239.00
1552.06,1249.00
1553.91,1260.00
1555.76,1186.00
1557.61,1218.00
1559.45,1249.00
1561.30,1239.00
1563.14,1313.00
1564.98,1270.00
1566.82,1228.00
1568.67,1196.00
1570.50,1154.00
1572.34,1165.00
1574.18,1197.00
1576.01,1154.00
1577.85,1239.00
1579.68,1250.00
1581.51,1154.00
1583.34,1143.00
1585.17,1123.00
1587.00,1133.00
1588.82,1112.00
1590.65,1175.00
1592.47,1186.00
1594.30,1081.00
1596.12,1069.00
1597.94,1123.00
1599.76,1133.00
1601.57,1112.00
1603.39,1144.00
1605.21,1186.00
1607.02,1186.00
1608.83,1102.00
1610.64,1080.00
1612.45,1080.00
1614.26,1069.00
1616.07,1037.00
1617.88,1090.00
1619.68,1091.00
1621.49,1133.00
1623.29,1175.00
1625.09,1218.00
1626.89,1218.00
1628.69,1133.00
1630.49,1059.00
1632.29,1038.00
1634.08,1017.00
1635.88,1059.00
1637.67,1122.00
1639.46,1037.00
1641.25,1027.00
1643.04,1037.00
1644.83,995.00
1646.62,995.00
1648.41,1038.00
1650.19,1048.00
1651.97,1069.00
1653.76,1091.00
1655.54,1048.00
1657.32,1059.00
1659.10,1070.00
1660.88,1091.00
1662.65,1080.00
1664.43,1028.00
1666.20,1059.00
1667.97,1101.00
1669.75,1048.00
1671.52,1017.00
1673.29,1006.00
1675.05,953.00
1676.82,953.00
1678.59,1006.00
1680.35,1016.00
1682.11,964.00
1683.88,985.00
1685.64,942.00
1687.40,910.00
1689.16,921.00
1690.91,921.00
1692.67,1006.00
1694.42,1006.00
1696.18,985.00
1697.93,974.00
1699.68,942.00
1701.43,963.00
1703.18,963.00
1704.93,932.00
1706.68,932.00
1708.42,911.00
1710.17,879.00
1711.91,858.00
1713.65,942.00
1715.39,921.00
1717.13,911.00
1718.87,953.00
1720.61,900.00
1722.35,847.00
1724.08,879.00
1725.81,889.00
1727.55,858.00
1729.28,868.00
1731.01,911.00
1732.74,858.00
1734.47,900.00
1736.19,879.00
1737.92,868.00
1739.64,932.00
1741.37,932.00
1743.09,869.00
1744.81,858.00
1746.53,890.00
1748.25,858.00
1749.97,847.00
1751.68,826.00
1753.40,837.00
1755.11,794.00
1756.83,826.00
1758.54,911.00
1760.25,900.00
1761.96,836.00
1763.67,858.00
1765.38,879.00
1767.08,847.00
1768.79,815.00
1770.49,773.00
1772.19,815.00
1773.90,847.00
1775.60,816.00
1777.30,869.00
1778.99,879.00
1780.69,847.00
1782.39,784.00
1784.08,805.00
1785.78,805.00
1787.47,784.00
1789.16,784.00
1790.85,773.00
1792.54,805.00
1794.23,784.00
1795.91,816.00
1797.60,826.00
1799.28,795.00
1800.97,762.00
1802.65,783.00
1804.33,784.00
1806.01,731.00
1807.69,763.00
1809.37,751.00
1811.05,752.00
1812.72,783.00
1814.40,805.00
1816.07,805.00
1817.74,783.00
1819.41,752.00
1821.08,752.00
1822.75,763.00
1824.42,731.00
1826.09,805.00
1827.75,773.00
1829.42,773.00
1831.08,656.00
1832.74,688.00
1834.40,762.00
1836.06,741.00
1837.72,763.00
1839.38,710.00
1841.04,731.00
1842.69,826.00
1844.35,794.00
1846.00,763.00
1847.65,762.00
1849.30,762.00
1850.95,741.00
1852.60,698.00
1854.25,699.00
1855.90,710.00
1857.54,710.00
1859.19,730.00
1860.83,773.00
1862.47,742.00
1864.12,677.00
1865.76,688.00
1867.40,731.00
1869.03,709.00
1870.67,710.00
1872.31,667.00
1873.94,625.00
1875.57,646.00
1877.21,699.00
1878.84,742.00
1880.47,699.00
1882.10,688.00
1883.73,699.00
1885.35,742.00
1886.98,742.00
1888.61,731.00
1890.23,741.00
1891.85,752.00
1893.47,678.00
1895.09,646.00
1896.71,582.00
1898.33,646.00
1899.95,688.00
1901.57,710.00
1903.18,709.00
1904.80,667.00
1906.41,614.00
1908.02,646.00
1909.63,720.00
1911.24,646.00
1912.85,625.00
1914.46,689.00
1916.07,678.00
1917.67,667.00
1919.28,614.00
1920.88,678.00
1922.48,614.00
1924.08,572.00
1925.68,604.00
1927.28,593.00
1928.88,625.00
1930.48,646.00
1932.07,593.00
1933.67,614.00
1935.26,636.00
1936.86,635.00
1938.45,593.00
1940.04,635.00
1941.63,582.00
1943.22,550.00
1944.80,571.00
1946.39,572.00
1947.98,529.00
1949.56,572.00
1951.14,615.00
1952.73,615.00
1954.31,635.00
1955.89,603.00
1957.47,635.00
1959.05,657.00
1960.62,657.00
1962.20,646.00
1963.77,572.00
1965.35,593.00
1966.92,572.00
1968.49,645.00
1970.06,667.00
1971.63,583.00
1973.20,561.00
1974.77,551.00
1976.34,604.00
1977.90,624.00
1979.47,582.00
1981.03,509.00
1982.59,529.00
1984.15,530.00
1985.71,572.00
1987.27,561.00
1988.83,551.00
1990.39,593.00
1991.94,625.00
1993.50,561.00
1995.05,550.00
1996.61,519.00
1998.16,551.00
1999.71,519.00
2001.26,530.00
2002.81,561.00
2004.36,529.00
2005.91,540.00
2007.45,551.00
2009.00,550.00
2010.54,593.00
2012.08,541.00
2013.62,530.00
2015.17,519.00
2016.71,530.00
2018.24,550.00
2019.78,571.00
2021.32,583.00
2022.85,508.00
2024.39,488.00
2025.92,498.00
2027.46,466.00
2028.99,561.00
2030.52,604.00
2032.05,540.00
2033.58,529.00
2035.10,571.00
2036.63,582.00
2038.16,551.00
2039.68,541.00
2041.21,508.00
2042.73,529.00
2044.25,487.00
2045.77,466.00
2047.29,530.00
2048.81,550.00
2050.33,530.00
2051.84,508.00
2053.36,540.00
2054.87,540.00
2056.39,519.00
2057.90,498.00
2059.41,519.00
2060.92,445.00
2062.43,444.00
2063.94,466.00
2065.45,509.00
2066.95,540.00
2068.46,519.00
2069.96,466.00
2071.47,498.00
2072.97,487.00
2074.47,508.00
2075.97,551.00
2077.47,487.00
2078.97,488.00
2080.47,498.00
2081.96,508.00
2083.46,476.00
2084.95,476.00
2086.45,455.00
2087.94,466.00
2089.43,445.00
2090.92,465.00
2092.41,455.00
2093.90,466.00
2095.39,487.00
2096.88,487.00
2098.36,530.00
2099.85,466.00
2101.33,456.00
2102.81,434.00
2104.30,402.00
2105.78,434.00
2107.26,445.00
2108.74,434.00
2110.21,498.00
2111.69,487.00
2113.17,455.00
2114.64,424.00
2116.12,465.00
2117.59,413.00
2119.06,434.00
2120.53,445.00
2122.00,371.00
2123.47,371.00
2124.94,424.00
2126.41,402.00
2127.87,445.00
2129.34,413.00
2130.80,445.00
2132.27,424.00
2133.73,392.00
2135.19,370.00
2136.65,402.00
2138.11,360.00
2139.57,350.00
2141.03,339.00
2142.48,338.00
2143.94,360.00
2145.39,360.00
2146.85,392.00
2148.30,424.00
2149.75,424.00
2151.20,413.00
2152.65,424.00
2154.10,434.00
2155.55,424.00
2157.00,381.00
2158.44,424.00
2159.89,466.00
2161.33,402.00
2162.78,402.00
2164.22,434.00
2165.66,445.00
2167.10,424.00
2168.54,424.00
2169.98,445.00
2171.42,413.00
2172.85,402.00
2174.29,413.00
2175.72,392.00
2177.16,339.00
2178.59,381.00
2180.02,402.00
2181.45,381.00
2182.88,360.00
2184.31,392.00
2185.74,413.00
2187.17,381.00
2188.59,381.00
2190.02,350.00
2191.44,445.00
2192.87,402.00
2194.29,370.00
2195.71,424.00
2197.13,371.00
2198.55,339.00
2199.97,339.00
2201.39,360.00
2202.81,381.00
2204.22,424.00
2205.64,381.00
2207.05,370.00
2208.46,360.00
2209.88,307.00
2211.29,392.00
2212.70,413.00
2214.11,402.00
2215.52,402.00
2216.92,371.00
2218.33,371.00
2219.74,339.00
2221.14,371.00
2222.54,339.00
2223.95,328.00
2225.35,349.00
2226.75,402.00
2228.15,402.00
2229.55,339.00
2230.95,318.00
2232.35,350.00
2233.74,360.00
2235.14,350.00
2236.53,339.00
2237.93,381.00
2239.32,371.00
2240.71,339.00
2242.10,339.00
2243.49,317.00
2244.88,360.00
2246.27,318.00
2247.66,381.00
2249.04,360.00
2250.43,360.00
2251.81,349.00
2253.20,297.00
2254.58,328.00
2255.96,307.00
2257.34,286.00
2258.72,360.00
2260.10,403.00
2261.48,382.00
2262.86,318.00
2264.23,328.00
2265.61,296.00
2266.98,328.00
2268.36,328.00
2269.73,339.00
2271.10,403.00
2272.47,339.00
2273.84,307.00
2275.21,307.00
2276.58,317.00
2277.95,338.00
2279.31,328.00
2280.68,381.00
2282.05,360.00
2283.41,392.00
2284.77,381.00
2286.13,349.00
2287.50,350.00
2288.86,370.00
2290.22,318.00
2291.57,286.00
2292.93,296.00
2294.29,275.00
2295.64,328.00
2297.00,371.00
2298.35,307.00
2299.71,254.00
2301.06,276.00
2302.41,297.00
2303.76,307.00
2305.11,339.00
2306.46,328.00
2307.81,328.00
2309.15,328.00
2310.50,286.00
2311.84,286.00
2313.19,296.00
2314.53,244.00
2315.87,307.00
2317.22,360.00
2318.56,317.00
2319.90,296.00
2321.24,338.00
2322.57,328.00
2323.91,275.00
2325.25,265.00
2326.58,318.00
2327.92,286.00
2329.25,286.00
2330.58,254.00
2331.91,275.00
2333.25,275.00
2334.58,307.00
2335.90,350.00
2337.23,328.00
2338.56,222.00
2339.89,201.00
2341.21,244.00
2342.54,275.00
2343.86,275.00
2345.19,307.00
2346.51,328.00
2347.83,275.00
2349.15,255.00
2350.47,243.00
2351.79,264.00
2353.11,233.00
2354.42,286.00
2355.74,286.00
2357.06,255.00
2358.37,243.00
2359.68,265.00
2361.00,318.00
2362.31,307.00
2363.62,307.00
2364.93,318.00
2366.24,317.00
2367.55,275.00
2368.86,286.00
2370.16,297.00
2371.47,286.00
2372.77,286.00
2374.08,275.00
2375.38,254.00
2376.68,211.00
2377.98,222.00
2379.29,244.00
2380.59,254.00
2381.88,233.00
2383.18,254.00
2384.48,233.00
2385.78,222.00
2387.07,275.00
2388.37,286.00
2389.66,265.00
2390.95,254.00
2392.25,296.00
2393.54,275.00
2394.83,275.00
2396.12,265.00
2397.41,212.00
2398.70,201.00
2399.98,232.00
2401.27,254.00
2402.55,212.00
2403.84,191.00
2405.12,212.00
2406.41,244.00
2407.69,254.00
2408.97,243.00
2410.25,233.00
2411.53,222.00
2412.81,232.00
2414.09,233.00
2415.36,222.00
2416.64,265.00
2417.91,296.00
2419.19,265.00
2420.46,265.00
2421.74,255.00
2423.01,201.00
2424.28,180.00
2425.55,180.00
2426.82,222.00
2428.09,265.00
2429.36,254.00
2430.62,233.00
2431.89,243.00
2433.15,233.00
2434.42,243.00
2435.68,265.00
2436.94,244.00
2438.21,243.00
2439.47,244.00
2440.73,212.00
2441.99,212.00
2443.25,233.00
2444.51,212.00
2445.76,180.00
2447.02,170.00
2448.27,201.00
2449.53,254.00
2450.78,254.00
2452.03,222.00
2453.29,191.00
2454.54,265.00
2455.79,255.00
2457.04,148.00
2458.29,191.00
2459.54,233.00
2460.78,233.00
2462.03,201.00
2463.27,223.00
2464.52,190.00
2465.76,190.00
2467.01,212.00
2468.25,201.00
2469.49,233.00
2470.73,222.00
2471.97,233.00
2473.21,223.00
2474.45,191.00
2475.69,148.00
2476.92,190.00
2478.16,169.00
2479.39,169.00
2480.63,201.00
2481.86,191.00
2483.09,180.00
2484.32,180.00
2485.56,170.00
2486.79,201.00
2488.02,201.00
2489.24,180.00
2490.47,191.00
2491.70,180.00
2492.92,180.00
2494.15,148.00
2495.37,180.00
2496.60,190.00
2497.82,233.00
2499.04,201.00
2500.26,106.00
2501.48,190.00
2502.70,170.00
2503.92,137.00
2505.14,170.00
2506.36,190.00
2507.58,211.00
2508.79,190.00
2510.01,180.00
2511.22,180.00
2512.43,201.00
2513.64,170.00
2514.86,233.00
2516.07,212.00
2517.28,180.00
2518.49,169.00
2519.70,170.00
2520.90,169.00
2522.11,148.00
2523.32,127.00
2524.52,127.00
2525.73,148.00
2526.93,127.00
2528.13,137.00
2529.33,95.00
2530.54,137.00
2531.74,169.00
2532.94,158.00
2534.14,222.00
2535.33,190.00
2536.53,170.00
2537.73,190.00
2538.92,201.00
2540.12,233.00
2541.31,191.00
2542.51,180.00
2543.70,222.00
2544.89,232.00
2546.08,211.00
2547.27,180.00
2548.46,222.00
2549.65,201.00
2550.84,116.00
2552.03,180.00
2553.21,233.00
2554.40,201.00
2555.58,191.00
2556.77,128.00
2557.95,190.00
2559.13,169.00
2560.31,148.00
2561.50,170.00
2562.68,190.00
2563.85,169.00
2565.03,170.00
2566.21,180.00
2567.39,190.00
2568.56,201.00
2569.74,180.00
2570.91,169.00
2572.09,191.00
2573.26,158.00
2574.43,127.00
2575.61,148.00
2576.78,180.00
2577.95,170.00
2579.12,116.00
2580.29,148.00
2581.45,180.00
2582.62,190.00
2583.79,127.00
2584.95,106.00
2586.12,137.00
2587.28,117.00
2588.44,148.00
2589.61,148.00
2590.77,149.00
2591.93,149.00
2593.09,127.00
2594.25,117.00
2595.41,127.00
2596.56,159.00
2597.72,127.00
2598.88,158.00
2600.03,148.00
2601.19,137.00
2602.34,106.00
2603.50,116.00
2604.65,158.00
2605.80,116.00
2606.95,127.00
2608.10,138.00
2609.25,169.00
2610.40,137.00
2611.55,127.00
2612.70,148.00
2613.84,190.00
2614.99,149.00
2616.13,138.00
2617.28,190.00
2618.42,148.00
2619.56,158.00
2620.71,148.00
2621.85,159.00
2622.99,170.00
2624.13,148.00
2625.27,127.00
2626.40,127.00
2627.54,127.00
2628.68,169.00
2629.81,159.00
2630.95,159.00
2632.08,148.00
2633.22,148.00
2634.35,137.00
2635.48,127.00
2636.61,74.00
2637.74,85.00
2638.87,106.00
2640.00,116.00
2641.13,127.00
2642.26,127.00
2643.39,127.00
2644.51,74.00
2645.64,190.00
2646.76,159.00
2647.89,137.00
2649.01,148.00
2650.13,159.00
2651.25,148.00
2652.38,180.00
2653.50,201.00
2654.62,159.00
2655.73,127.00
2656.85,96.00
2657.97,137.00
2659.09,95.00
2660.20,84.00
2661.32,74.00
2662.43,137.00
2663.55,190.00
2664.66,148.00
2665.77,137.00
2666.88,106.00
2667.99,106.00
2669.10,95.00
2670.21,84.00
2671.32,127.00
2672.43,127.00
2673.54,137.00
2674.64,170.00
2675.75,190.00
2676.85,149.00
2677.96,106.00
2679.06,127.00
2680.16,137.00
2681.26,127.00
2682.37,148.00
2683.47,85.00
2684.57,95.00
2685.66,127.00
2686.76,106.00
2687.86,138.00
2688.96,138.00
2690.05,106.00
2691.15,85.00
2692.24,106.00
2693.34,137.00
2694.43,127.00
2695.52,137.00
2696.62,138.00
2697.71,127.00
2698.80,63.00
2699.89,42.00
2700.98,106.00
2702.06,75.00
2703.15,85.00
2704.24,117.00
2705.32,85.00
2706.41,85.00
2707.49,127.00
2708.58,116.00
2709.66,127.00
2710.74,117.00
2711.83,138.00
2712.91,85.00
2713.99,105.00
2715.07,85.00
2716.15,95.00
2717.22,137.00
2718.30,117.00
2719.38,74.00
2720.45,95.00
2721.53,137.00
2722.60,159.00
2723.68,74.00
2724.75,85.00
2725.82,127.00
2726.89,127.00
2727.97,137.00
2729.04,137.00
2730.11,75.00
2731.17,96.00
2732.24,106.00
2733.31,106.00
2734.38,149.00
2735.44,127.00
2736.51,106.00
2737.57,84.00
2738.64,53.00
2739.70,85.00
2740.76,63.00
2741.82,95.00
2742.89,95.00
2743.95,85.00
2745.01,105.00
2746.07,85.00
2747.12,85.00
2748.18,138.00
2749.24,106.00
2750.29,85.00
2751.35,85.00
2752.40,106.00
2753.46,127.00
2754.51,127.00
2755.57,106.00
2756.62,137.00
2757.67,106.00
2758.72,85.00
2759.77,105.00
2760.82,106.00
2761.87,106.00
2762.91,106.00
2763.96,127.00
2765.01,116.00
2766.05,85.00
2767.10,85.00
2768.14,95.00
2769.19,127.00
2770.23,84.00
2771.27,85.00
2772.31,85.00
2773.35,117.00
2774.40,128.00
2775.43,64.00
2776.47,63.00
2777.51,42.00
2778.55,63.00
2779.59,95.00
2780.62,85.00
2781.66,85.00
2782.69,127.00
2783.73,138.00
2784.76,106.00
2785.79,84.00
2786.82,105.00
2787.85,106.00
2788.89,63.00
2789.92,106.00
2790.94,117.00
2791.97,127.00
2793.00,138.00
2794.03,63.00
2795.05,53.00
2796.08,85.00
2797.11,85.00
2798.13,85.00
2799.15,85.00
2800.18,74.00
2801.20,84.00
2802.22,127.00
2803.24,117.00
2804.26,84.00
2805.28,138.00
2806.30,106.00
2807.32,85.00
2808.34,52.00
2809.35,42.00
2810.37,74.00
2811.39,84.00
2812.40,64.00
2813.41,85.00
2814.43,106.00
2815.44,85.00
2816.45,106.00
2817.46,85.00
2818.48,85.00
2819.49,53.00
2820.49,105.00
2821.50,63.00
2822.51,63.00
2823.52,85.00
2824.53,84.00
2825.53,63.00
2826.54,53.00
2827.54,106.00
2828.55,106.00
2829.55,96.00
2830.55,138.00
2831.55,96.00
2832.56,84.00
2833.56,84.00
2834.56,116.00
2835.56,64.00
2836.56,95.00
2837.55,106.00
2838.55,84.00
2839.55,85.00
2840.54,84.00
2841.54,42.00
2842.53,74.00
2843.53,63.00
2844.52,21.00
2845.51,53.00
2846.51,74.00
2847.50,85.00
2848.49,85.00
2849.48,64.00
2850.47,85.00
2851.46,84.00
2852.45,64.00
2853.43,32.00
2854.42,64.00
2855.41,42.00
2856.39,64.00
2857.38,64.00
2858.36,43.00
2859.34,95.00
2860.33,106.00
2861.31,148.00
2862.29,106.00
2863.27,43.00
2864.25,0.00
2865.23,53.00
2866.21,74.00
2867.19,43.00
2868.17,21.00
2869.14,74.00
2870.12,106.00
2871.09,63.00
2872.07,31.00
2873.04,74.00
2874.02,85.00
2874.99,74.00
2875.96,75.00
2876.93,106.00
2877.91,106.00
2878.88,63.00
2879.85,85.00
2880.82,127.00
2881.78,64.00
2882.75,21.00
2883.72,43.00
2884.69,10.00
2885.65,0.00
2886.62,64.00
2887.58,53.00
2888.55,32.00
2889.51,74.00
2890.47,106.00
2891.43,74.00
2892.39,74.00
2893.36,64.00
2894.31,85.00
2895.27,42.00
2896.23,42.00
2897.19,32.00
2898.15,21.00
2899.11,42.00
2900.06,42.00
2901.02,31.00
2901.97,74.00
2902.93,85.00
2903.88,105.00
2904.83,74.00
2905.79,74.00
2906.74,84.00
2907.69,95.00
2908.64,96.00
2909.59,106.00
2910.54,42.00
2911.49,21.00
2912.43,32.00
2913.38,43.00
2914.33,32.00
2915.27,84.00
2916.22,116.00
2917.16,84.00
2918.11,63.00
2919.05,21.00
2919.99,11.00
2920.94,42.00
2921.88,85.00
2922.82,75.00
2923.76,32.00
2924.70,64.00
2925.64,42.00
2926.58,85.00
2927.51,74.00
2928.45,32.00
2929.39,10.00
2930.32,32.00
2931.26,85.00
2932.19,64.00
2933.13,21.00
2934.06,32.00
2934.99,63.00
2935.92,84.00
2936.86,85.00
2937.79,95.00
2938.72,64.00
2939.65,0.00
2940.57,10.00
2941.50,42.00
2942.43,32.00
2943.36,43.00
2944.28,21.00
2945.21,52.00
2946.13,85.00
2947.06,21.00
2947.98,74.00
2948.91,105.00
2949.83,106.00
2950.75,42.00
2951.67,0.00
2952.59,64.00
2953.51,63.00
2954.43,42.00
2955.35,64.00
2956.27,84.00
2957.19,84.00
2958.10,106.00
2959.02,74.00
2959.94,10.00
2960.85,84.00
2961.77,96.00
2962.68,106.00
2963.59,43.00
2964.51,52.00
2965.42,53.00
2966.33,64.00
2967.24,32.00
2968.15,42.00
2969.06,53.00
2969.97,63.00
2970.88,32.00
2971.78,74.00
2972.69,74.00
2973.60,138.00
2974.50,85.00
2975.41,10.00
2976.31,0.00
2977.22,32.00
2978.12,0.00
2979.02,53.00
2979.93,32.00
2980.83,43.00
2981.73,85.00
2982.63,96.00
2983.53,42.00
2984.43,10.00
2985.33,21.00
2986.22,-42.00
2987.12,0.00
2988.02,63.00
2988.91,95.00
2989.81,84.00
2990.70,85.00
2991.60,64.00
2992.49,84.00
2993.38,96.00
2994.28,42.00
2995.17,64.00
2996.06,21.00
2996.95,63.00
2997.84,42.00
2998.73,-42.00
2999.62,32.00
3000.51,84.00
3001.40,21.00
3002.28,-43.00
3003.17,10.00
3004.05,63.00
3004.94,63.00
3005.82,21.00
3006.71,22.00
3007.59,32.00
3008.47,53.00
3009.36,22.00
3010.24,53.00
3011.12,64.00
3012.00,53.00
3012.88,64.00
3013.76,53.00
3014.64,0.00
3015.51,-11.00
3016.39,11.00
3017.27,53.00
3018.14,22.00
3019.02,21.00
3019.89,21.00
3020.77,52.00
3021.64,53.00
3022.52,21.00
3023.39,21.00
3024.26,10.00
3025.13,-21.00
3026.00,-21.00
3026.87,-10.00
3027.74,-11.00
3028.61,63.00
3029.48,53.00
3030.35,10.00
3031.21,-22.00
3032.08,42.00
3032.95,63.00
3033.81,-10.00
3034.68,21.00
3035.54,64.00
3036.40,0.00
3037.27,-42.00
3038.13,21.00
3038.99,85.00
3039.85,74.00
3040.71,32.00
3041.57,21.00
3042.43,11.00
3043.29,10.00
3044.15,11.00
3045.01,53.00
3045.86,42.00
3046.72,63.00
3047.58,64.00
3048.43,10.00
3049.29,21.00
3050.14,0.00
3050.99,42.00
3051.85,21.00
3052.70,11.00
3053.55,31.00
3054.40,32.00
3055.25,63.00
3056.10,63.00
3056.95,42.00
3057.80,84.00
3058.65,64.00
3059.50,32.00
3060.34,63.00
3061.19,53.00
3062.04,43.00
3062.88,43.00
3063.73,21.00
3064.57,22.00
3065.42,21.00
3066.26,43.00
3067.10,43.00
3067.94,22.00
3068.78,42.00
3069.63,85.00
3070.47,64.00
3071.31,0.00
3072.14,0.00
3072.98,42.00
3073.82,21.00
3074.66,53.00
3075.49,42.00
3076.33,42.00
3077.17,11.00
3078.00,52.00
3078.83,63.00
3079.67,85.00
3080.50,74.00
3081.33,32.00
3082.17,0.00
3083.00,10.00
3083.83,53.00
3084.66,42.00
3085.49,-11.00
3086.32,0.00
3087.15,53.00
3087.97,95.00
3088.80,74.00
3089.63,42.00
3090.46,53.00
3091.28,53.00
3092.11,74.00
3092.93,63.00
3093.75,85.00
3094.58,22.00
3095.40,0.00
3096.22,21.00
3097.05,-22.00
3097.87,10.00
3098.69,0.00
3099.51,53.00
3100.33,84.00
3101.15,63.00
3101.96,43.00
3102.78,42.00
3103.60,21.00
3104.42,11.00
3105.23,42.00
3106.05,0.00
3106.86,21.00
3107.68,21.00
3108.49,63.00
3109.30,53.00
3110.12,21.00
3110.93,42.00
3111.74,42.00
3112.55,32.00
3113.36,21.00
3114.17,32.00
3114.98,21.00
3115.79,0.00
3116.60,-21.00
3117.40,53.00
3118.21,64.00
3119.02,42.00
3119.82,63.00
3120.63,53.00
3121.43,42.00
3122.24,53.00
3123.04,42.00
3123.84,43.00
3124.65,53.00
3125.45,43.00
3126.25,-11.00
3127.05,-32.00
3127.85,21.00
3128.65,53.00
3129.45,-11.00
3130.25,32.00
3131.05,63.00
3131.84,53.00
3132.64,11.00
3133.44,21.00
3134.23,32.00
3135.03,64.00
3135.82,74.00
3136.62,53.00
3137.41,53.00
3138.20,0.00
3139.00,-21.00
3139.79,0.00
3140.58,74.00
3141.37,32.00
3142.16,-52.00
3142.95,-32.00
3143.74,10.00
3144.53,42.00
3145.32,42.00
3146.10,43.00
3146.89,0.00
3147.68,32.00
3148.46,43.00
3149.25,-21.00
3150.03,-10.00
3150.82,22.00
3151.60,10.00
3152.38,0.00
3153.17,0.00
3153.95,0.00
3154.73,42.00
3155.51,32.00
3156.29,10.00
3157.07,-21.00
3157.85,0.00
3158.63,21.00
3159.41,75.00
3160.18,75.00
3160.96,42.00
3161.74,32.00
3162.51,43.00
3163.29,74.00
3164.06,53.00
3164.84,64.00
3165.61,42.00
3166.38,42.00
3167.16,74.00
3167.93,21.00
3168.70,0.00
3169.47,31.00
3170.24,74.00
3171.01,32.00
3171.78,53.00
3172.55,21.00
3173.32,32.00
3174.09,32.00
3174.85,43.00
3175.62,21.00
3176.39,64.00
3177.15,64.00
3177.92,32.00
3178.68,21.00
3179.45,42.00
3180.21,0.00
3180.97,43.00
3181.73,21.00
3182.50,11.00
3183.26,11.00
3184.02,-21.00
3184.78,0.00
3185.54,-53.00
3186.30,-32.00
3187.05,-11.00
3187.81,42.00
3188.57,21.00
3189.33,0.00
3190.08,22.00
3190.84,53.00
3191.59,42.00
3192.35,42.00
3193.10,53.00
3193.86,21.00
3194.61,-11.00
3195.36,-22.00
3196.12,11.00
3196.87,21.00
3197.62,64.00
3198.37,42.00
3199.12,10.00
3199.87,0.00
3200.62,42.00
3201.36,85.00
3202.11,85.00
3202.86,53.00
3203.61,32.00
3204.35,21.00
3205.10,43.00
3205.84,53.00
3206.59,32.00
3207.33,0.00
3208.08,-42.00
3208.82,-32.00
3209.56,0.00
3210.30,11.00
3211.05,10.00
3211.79,0.00
3212.53,21.00
3213.27,-10.00
3214.01,-21.00
3214.75,11.00
3215.48,43.00
3216.22,11.00
3216.96,10.00
3217.69,42.00
3218.43,0.00
3219.17,32.00
3219.90,32.00
3220.64,22.00
3221.37,11.00
3222.10,21.00
3222.84,53.00
3223.57,0.00
3224.30,10.00
3225.03,53.00
3225.76,43.00
3226.49,21.00
3227.22,63.00
3227.95,64.00
3228.68,64.00
3229.41,43.00
3230.14,0.00
3230.87,32.00
3231.59,74.00
3232.32,32.00
3233.04,21.00
3233.77,74.00
3234.49,64.00
3235.22,32.00
3235.94,11.00
3236.66,31.00
3237.39,64.00
3238.11,32.00
3238.83,74.00
3239.55,75.00
3240.27,85.00
3240.99,22.00
3241.71,-53.00
3242.43,-22.00
3243.15,21.00
3243.87,-21.00
3244.58,21.00
3245.30,84.00
3246.02,74.00
3246.73,21.00
3247.45,11.00
3248.16,0.00
3248.88,63.00
3249.59,32.00
3250.30,10.00
3251.01,42.00
3251.73,11.00
3252.44,0.00
3253.15,0.00
3253.86,-31.00
3254.57,-22.00
3255.28,11.00
3255.99,21.00
3256.70,53.00
3257.41,0.00
3258.11,-53.00
3258.82,31.00
3259.53,21.00
3260.23,31.00
3260.94,21.00
3261.64,0.00
3262.35,43.00
3263.05,64.00
3263.76,42.00
3264.46,21.00
3265.16,74.00
3265.86,11.00
3266.56,-31.00
3267.26,-53.00
3267.97,-31.00
3268.67,42.00
3269.36,10.00
3270.06,0.00
3270.76,-22.00
3271.46,0.00
3272.16,0.00
3272.85,0.00
