RamanShift,Intensity
180.91,201.00
183.74,254.00
186.56,328.00
189.39,403.00
192.21,582.00
195.03,773.00
197.84,974.00
200.66,1228.00
203.47,1493.00
206.28,1822.00
209.09,2097.00
211.89,2361.00
214.70,2562.00
217.50,2690.00
220.30,2753.00
223.10,2827.00
225.89,2807.00
228.69,2785.00
231.48,2817.00
234.27,2849.00
237.05,2934.00
239.84,3018.00
242.62,2965.00
245.40,2891.00
248.18,2848.00
250.96,2848.00
253.73,2901.00
256.51,2954.00
259.28,2859.00
262.05,2711.00
264.81,2700.00
267.58,2658.00
270.34,2743.00
273.10,2828.00
275.86,2817.00
278.61,2785.00
281.37,2669.00
284.12,2774.00
286.87,2848.00
289.62,2785.00
292.36,2711.00
295.11,2658.00
297.85,2690.00
300.59,2722.00
303.33,2721.00
306.06,2680.00
308.80,2690.00
311.53,2700.00
314.26,2637.00
316.99,2690.00
319.71,2764.00
322.44,2764.00
325.16,2743.00
327.88,2743.00
330.59,2732.00
333.31,2743.00
336.02,2732.00
338.73,2658.00
341.44,2657.00
344.15,2722.00
346.86,2775.00
349.56,2711.00
352.26,2679.00
354.96,2743.00
357.66,2827.00
360.35,2785.00
363.05,2721.00
365.74,2637.00
368.43,2679.00
371.12,2721.00
373.80,2743.00
376.48,2754.00
379.17,2785.00
381.85,2807.00
384.52,2806.00
387.20,2838.00
389.87,2785.00
392.54,2700.00
395.21,2785.00
397.88,2827.00
400.55,2743.00
403.21,2785.00
405.87,2838.00
408.53,2838.00
411.19,2891.00
413.84,2848.00
416.50,2817.00
419.15,2764.00
421.80,2764.00
424.45,2711.00
427.10,2753.00
429.74,2722.00
432.38,2711.00
435.02,2732.00
437.66,2679.00
440.30,2743.00
442.93,2827.00
445.56,2743.00
448.19,2742.00
450.82,2753.00
453.45,2657.00
456.07,2742.00
458.70,2806.00
461.32,2785.00
463.94,2722.00
466.55,2764.00
469.17,2753.00
471.78,2700.00
474.39,2700.00
477.00,2700.00
479.61,2721.00
482.22,2743.00
484.82,2785.00
487.42,2700.00
490.02,2732.00
492.62,2785.00
495.21,2743.00
497.81,2627.00
500.40,2594.00
502.99,2636.00
505.58,2573.00
508.17,2605.00
510.75,2669.00
513.33,2679.00
515.91,2636.00
518.49,2627.00
521.07,2668.00
523.65,2700.00
526.22,2689.00
528.79,2637.00
531.36,2658.00
533.93,2669.00
536.49,2648.00
539.06,2605.00
541.62,2637.00
544.18,2668.00
546.74,2637.00
549.30,2605.00
551.85,2605.00
554.40,2584.00
556.95,2584.00
559.50,2563.00
562.05,2584.00
564.59,2531.00
567.14,2509.00
569.68,2594.00
572.22,2615.00
574.76,2489.00
577.29,2457.00
579.83,2425.00
582.36,2446.00
584.89,2457.00
587.42,2424.00
589.95,2287.00
592.47,2309.00
594.99,2467.00
597.52,2477.00
600.04,2425.00
602.55,2415.00
605.07,2457.00
607.58,2446.00
610.09,2425.00
612.60,2404.00
615.11,2361.00
617.62,2404.00
620.12,2415.00
622.63,2424.00
625.13,2446.00
627.63,2404.00
630.13,2330.00
632.62,2319.00
635.12,2425.00
637.61,2403.00
640.10,2372.00
642.59,2414.00
645.07,2340.00
647.56,2298.00
650.04,2256.00
652.52,2224.00
655.00,2235.00
657.48,2256.00
659.96,2202.00
662.43,2202.00
664.90,2255.00
667.37,2235.00
669.84,2288.00
672.31,2288.00
674.78,2181.00
677.24,2224.00
679.70,2330.00
682.16,2329.00
684.62,2287.00
687.08,2266.00
689.53,2192.00
691.98,2171.00
694.43,2203.00
696.88,2224.00
699.33,2139.00
701.78,2096.00
704.22,2118.00
706.66,2224.00
709.10,2182.00
711.54,2118.00
713.98,2118.00
716.42,2149.00
718.85,2182.00
721.28,2224.00
723.71,2287.00
726.14,2372.00
728.57,2266.00
730.99,2213.00
733.41,2234.00
735.83,2245.00
738.25,2160.00
740.67,2054.00
743.09,2086.00
745.50,2139.00
747.91,2149.00
750.33,2054.00
752.73,2033.00
755.14,2012.00
757.55,2034.00
759.95,2065.00
762.35,2065.00
764.75,2033.00
767.15,1938.00
769.55,1980.00
771.95,1970.00
774.34,2012.00
776.73,2001.00
779.12,1917.00
781.51,1917.00
783.90,1906.00
786.28,1981.00
788.67,1980.00
791.05,1969.00
793.43,1970.00
795.80,1916.00
798.18,1948.00
800.56,1980.00
802.93,1938.00
805.30,1991.00
807.67,1916.00
810.04,1832.00
812.40,1768.00
814.77,1885.00
817.13,1938.00
819.49,1853.00
821.85,1864.00
824.21,1885.00
826.57,1906.00
828.92,1853.00
831.27,1853.00
833.63,1863.00
835.98,1864.00
838.32,1874.00
840.67,1789.00
843.01,1789.00
845.36,1790.00
847.70,1757.00
850.04,1800.00
852.37,1800.00
854.71,1747.00
857.05,1801.00
859.38,1810.00
861.71,1768.00
864.04,1716.00
866.37,1758.00
868.69,1779.00
871.02,1748.00
873.34,1715.00
875.66,1726.00
877.98,1684.00
880.30,1663.00
882.62,1695.00
884.93,1779.00
887.24,1779.00
889.55,1673.00
891.86,1684.00
894.17,1716.00
896.48,1726.00
898.78,1705.00
901.09,1652.00
903.39,1684.00
905.69,1662.00
907.99,1663.00
910.28,1694.00
912.58,1662.00
914.87,1673.00
917.16,1705.00
919.45,1651.00
921.74,1641.00
924.03,1673.00
926.31,1631.00
928.60,1651.00
930.88,1715.00
933.16,1641.00
935.44,1663.00
937.72,1609.00
939.99,1546.00
942.26,1620.00
944.54,1631.00
946.81,1588.00
949.08,1588.00
951.34,1546.00
953.61,1514.00
955.87,1546.00
958.14,1546.00
960.40,1514.00
962.66,1493.00
964.92,1493.00
967.17,1524.00
969.43,1546.00
971.68,1567.00
973.93,1610.00
976.18,1588.00
978.43,1546.00
980.68,1514.00
982.92,1483.00
985.17,1461.00
987.41,1515.00
989.65,1514.00
991.89,1483.00
994.12,1493.00
996.36,1462.00
998.59,1429.00
1000.83,1419.00
1003.06,1430.00
1005.29,1440.00
1007.51,1376.00
1009.74,1387.00
1011.97,1419.00
1014.19,1450.00
1016.41,1441.00
1018.63,1429.00
1020.85,1472.00
1023.07,1387.00
1025.28,1398.00
1027.49,1493.00
1029.71,1419.00
1031.92,1355.00
1034.13,1419.00
1036.33,1461.00
1038.54,1451.00
1040.74,1451.00
1042.95,1355.00
1045.15,1334.00
1047.35,1324.00
1049.55,1387.00
1051.74,1376.00
1053.94,1334.00
1056.13,1397.00
1058.32,1440.00
1060.51,1462.00
1062.70,1440.00
1064.89,1398.00
1067.08,1408.00
1069.26,1366.00
1071.44,1430.00
1073.63,1387.00
1075.81,1398.00
1077.98,1355.00
1080.16,1323.00
1082.34,1271.00
1084.51,1323.00
1086.68,1356.00
1088.85,1313.00
1091.02,1355.00
1093.19,1356.00
1095.35,1366.00
1097.52,1313.00
1099.68,1270.00
1101.84,1334.00
1104.00,1356.00
1106.16,1281.00
1108.32,1282.00
1110.48,1281.00
1112.63,1228.00
1114.78,1271.00
1116.93,1334.00
1119.08,1324.00
1121.23,1313.00
1123.38,1270.00
1125.52,1176.00
1127.67,1229.00
1129.81,1271.00
1131.95,1271.00
1134.09,1250.00
1136.22,1292.00
1138.36,1250.00
1140.50,1207.00
1142.63,1164.00
1144.76,1165.00
1146.89,1218.00
1149.02,1239.00
1151.15,1239.00
1153.27,1207.00
1155.40,1155.00
1157.52,1101.00
1159.64,1143.00
1161.76,1207.00
1163.88,1143.00
1165.99,1196.00
1168.11,1250.00
1170.22,1208.00
1172.34,1080.00
1174.45,1101.00
1176.56,1186.00
1178.66,1143.00
1180.77,1101.00
1182.88,1112.00
1184.98,1143.00
1187.08,1133.00
1189.18,1197.00
1191.28,1218.00
1193.38,1175.00
1195.47,1186.00
1197.57,1228.00
1199.66,1229.00
1201.75,1165.00
1203.85,1207.00
1205.93,1271.00
1208.02,1207.00
1210.11,1176.00
1212.19,1207.00
1214.28,1197.00
1216.36,1164.00
1218.44,1186.00
1220.52,1154.00
1222.59,1144.00
1224.67,1155.00
1226.74,1154.00
1228.82,1144.00
1230.89,1123.00
1232.96,1133.00
1235.03,1102.00
1237.10,1080.00
1239.16,1048.00
1241.23,1017.00
1243.29,1038.00
1245.35,1059.00
1247.41,1069.00
1249.47,1091.00
1251.53,1069.00
1253.58,1006.00
1255.64,974.00
1257.69,1059.00
1259.74,1123.00
1261.79,1111.00
1263.84,1091.00
1265.89,1059.00
1267.93,1101.00
1269.98,1133.00
1272.02,1122.00
1274.06,1017.00
1276.10,1027.00
1278.14,1091.00
1280.18,1080.00
1282.22,1048.00
1284.25,1049.00
1286.28,1101.00
1288.32,1037.00
1290.35,964.00
1292.38,1017.00
1294.40,1038.00
1296.43,1048.00
1298.46,1091.00
1300.48,1049.00
1302.50,1028.00
1304.52,1070.00
1306.54,1038.00
1308.56,1080.00
1310.58,1038.00
1312.59,1017.00
1314.60,1027.00
1316.62,1027.00
1318.63,1027.00
1320.64,1069.00
1322.65,963.00
1324.65,900.00
1326.66,995.00
1328.66,1091.00
1330.66,1091.00
1332.67,1133.00
1334.67,1101.00
1336.66,1017.00
1338.66,995.00
1340.66,974.00
1342.65,964.00
1344.65,932.00
1346.64,932.00
1348.63,974.00
1350.62,943.00
1352.60,984.00
1354.59,995.00
1356.57,954.00
1358.56,964.00
1360.54,931.00
1362.52,900.00
1364.50,931.00
1366.48,911.00
1368.46,974.00
1370.43,985.00
1372.41,985.00
1374.38,1016.00
1376.35,921.00
1378.32,911.00
1380.29,890.00
1382.25,911.00
1384.22,964.00
1386.18,911.00
1388.15,942.00
1390.11,943.00
1392.07,921.00
1394.03,995.00
1395.99,974.00
1397.94,985.00
1399.90,931.00
1401.85,878.00
1403.80,932.00
1405.76,879.00
1407.71,826.00
1409.65,857.00
1411.60,921.00
1413.55,921.00
1415.49,932.00
1417.44,910.00
1419.38,889.00
1421.32,900.00
1423.26,857.00
1425.19,784.00
1427.13,826.00
1429.07,826.00
1431.00,826.00
1432.93,847.00
1434.86,869.00
1436.79,826.00
1438.72,868.00
1440.65,879.00
1442.57,879.00
1444.50,911.00
1446.42,879.00
1448.34,837.00
1450.26,805.00
1452.18,847.00
1454.10,868.00
1456.02,869.00
1457.93,879.00
1459.85,837.00
1461.76,773.00
1463.67,794.00
1465.58,837.00
1467.49,868.00
1469.40,868.00
1471.31,847.00
1473.21,857.00
1475.11,837.00
1477.02,836.00
1478.92,815.00
1480.82,763.00
1482.72,805.00
1484.61,826.00
1486.51,763.00
1488.40,762.00
1490.30,826.00
1492.19,751.00
1494.08,773.00
1495.97,816.00
1497.86,805.00
1499.74,720.00
1501.63,763.00
1503.51,805.00
1505.40,848.00
1507.28,795.00
1509.16,763.00
1511.04,741.00
1512.92,763.00
1514.79,783.00
1516.67,773.00
1518.54,763.00
1520.42,742.00
1522.29,741.00
1524.16,763.00
1526.03,720.00
1527.89,720.00
1529.76,731.00
1531.63,741.00
1533.49,783.00
1535.35,816.00
1537.21,773.00
1539.07,763.00
1540.93,742.00
1542.79,741.00
1544.65,741.00
1546.50,741.00
1548.36,752.00
1550.21,720.00
1552.06,720.00
1553.91,741.00
1555.76,720.00
1557.61,699.00
1559.45,678.00
1561.30,688.00
1563.14,720.00
1564.98,699.00
1566.82,741.00
1568.67,667.00
1570.50,678.00
1572.34,699.00
1574.18,710.00
1576.01,741.00
1577.85,720.00
1579.68,773.00
1581.51,730.00
1583.34,677.00
1585.17,677.00
1587.00,720.00
1588.82,688.00
1590.65,677.00
1592.47,678.00
1594.30,688.00
1596.12,667.00
1597.94,688.00
1599.76,678.00
1601.57,657.00
1603.39,657.00
1605.21,635.00
1607.02,656.00
1608.83,678.00
1610.64,709.00
1612.45,677.00
1614.26,615.00
1616.07,646.00
1617.88,625.00
1619.68,657.00
1621.49,699.00
1623.29,667.00
1625.09,656.00
1626.89,624.00
1628.69,678.00
1630.49,689.00
1632.29,678.00
1634.08,635.00
1635.88,614.00
1637.67,636.00
1639.46,657.00
1641.25,614.00
1643.04,614.00
1644.83,657.00
1646.62,678.00
1648.41,646.00
1650.19,603.00
1651.97,657.00
1653.76,625.00
1655.54,583.00
1657.32,582.00
1659.10,614.00
1660.88,625.00
1662.65,636.00
1664.43,646.00
1666.20,582.00
1667.97,593.00
1669.75,593.00
1671.52,614.00
1673.29,636.00
1675.05,593.00
1676.82,603.00
1678.59,603.00
1680.35,603.00
1682.11,603.00
1683.88,614.00
1685.64,593.00
1687.40,583.00
1689.16,562.00
1690.91,571.00
1692.67,540.00
1694.42,604.00
1696.18,657.00
1697.93,583.00
1699.68,550.00
1701.43,540.00
1703.18,614.00
1704.93,635.00
1706.68,593.00
1708.42,530.00
1710.17,561.00
1711.91,508.00
1713.65,519.00
1715.39,562.00
1717.13,540.00
1718.87,615.00
1720.61,582.00
1722.35,529.00
1724.08,550.00
1725.81,519.00
1727.55,540.00
1729.28,550.00
1731.01,487.00
1732.74,508.00
1734.47,561.00
1736.19,551.00
1737.92,519.00
1739.64,508.00
1741.37,551.00
1743.09,519.00
1744.81,508.00
1746.53,508.00
1748.25,487.00
1749.97,529.00
1751.68,508.00
1753.40,551.00
1755.11,593.00
1756.83,571.00
1758.54,508.00
1760.25,508.00
1761.96,498.00
1763.67,444.00
1765.38,424.00
1767.08,529.00
1768.79,529.00
1770.49,508.00
1772.19,519.00
1773.90,508.00
1775.60,466.00
1777.30,498.00
1778.99,519.00
1780.69,551.00
1782.39,498.00
1784.08,445.00
1785.78,466.00
1787.47,487.00
1789.16,550.00
1790.85,508.00
1792.54,477.00
1794.23,466.00
1795.91,455.00
1797.60,488.00
1799.28,508.00
1800.97,540.00
1802.65,498.00
1804.33,487.00
1806.01,455.00
1807.69,477.00
1809.37,455.00
1811.05,508.00
1812.72,487.00
1814.40,498.00
1816.07,530.00
1817.74,487.00
1819.41,424.00
1821.08,435.00
1822.75,413.00
1824.42,413.00
1826.09,434.00
1827.75,423.00
1829.42,423.00
1831.08,476.00
1832.74,487.00
1834.40,466.00
1836.06,423.00
1837.72,466.00
1839.38,476.00
1841.04,455.00
1842.69,465.00
1844.35,466.00
1846.00,466.00
1847.65,424.00
1849.30,424.00
1850.95,434.00
1852.60,381.00
1854.25,402.00
1855.90,413.00
1857.54,413.00
1859.19,445.00
1860.83,445.00
1862.47,423.00
1864.12,424.00
1865.76,424.00
1867.40,466.00
1869.03,497.00
1870.67,455.00
1872.31,424.00
1873.94,445.00
1875.57,370.00
1877.21,360.00
1878.84,477.00
1880.47,434.00
1882.10,392.00
1883.73,392.00
1885.35,350.00
1886.98,360.00
1888.61,371.00
1890.23,391.00
1891.85,392.00
1893.47,413.00
1895.09,423.00
1896.71,403.00
1898.33,402.00
1899.95,403.00
1901.57,424.00
1903.18,391.00
1904.80,424.00
1906.41,423.00
1908.02,391.00
1909.63,381.00
1911.24,371.00
1912.85,360.00
1914.46,329.00
1916.07,360.00
1917.67,402.00
1919.28,402.00
1920.88,424.00
1922.48,381.00
1924.08,403.00
1925.68,402.00
1927.28,360.00
1928.88,318.00
1930.48,350.00
1932.07,381.00
1933.67,370.00
1935.26,350.00
1936.86,339.00
1938.45,392.00
1940.04,402.00
1941.63,370.00
1943.22,318.00
1944.80,382.00
1946.39,370.00
1947.98,318.00
1949.56,339.00
1951.14,350.00
1952.73,360.00
1954.31,360.00
1955.89,445.00
1957.47,360.00
1959.05,350.00
1960.62,392.00
1962.20,423.00
1963.77,392.00
1965.35,381.00
1966.92,339.00
1968.49,339.00
1970.06,392.00
1971.63,360.00
1973.20,339.00
1974.77,360.00
1976.34,339.00
1977.90,339.00
1979.47,392.00
1981.03,360.00
1982.59,350.00
1984.15,317.00
1985.71,339.00
1987.27,339.00
1988.83,360.00
1990.39,318.00
1991.94,349.00
1993.50,329.00
1995.05,318.00
1996.61,339.00
1998.16,382.00
1999.71,339.00
2001.26,350.00
2002.81,370.00
2004.36,382.00
2005.91,371.00
2007.45,371.00
2009.00,392.00
2010.54,329.00
2012.08,338.00
2013.62,329.00
2015.17,339.00
2016.71,381.00
2018.24,382.00
2019.78,360.00
2021.32,307.00
2022.85,339.00
2024.39,381.00
2025.92,381.00
2027.46,370.00
2028.99,360.00
2030.52,317.00
2032.05,318.00
2033.58,318.00
2035.10,318.00
2036.63,338.00
2038.16,296.00
2039.68,328.00
2041.21,371.00
2042.73,339.00
2044.25,297.00
2045.77,307.00
2047.29,275.00
2048.81,318.00
2050.33,318.00
2051.84,297.00
2053.36,254.00
2054.87,317.00
2056.39,329.00
2057.90,244.00
2059.41,307.00
2060.92,339.00
2062.43,297.00
2063.94,275.00
2065.45,275.00
2066.95,286.00
2068.46,338.00
2069.96,307.00
2071.47,297.00
2072.97,265.00
2074.47,307.00
2075.97,275.00
2077.47,317.00
2078.97,317.00
2080.47,275.00
2081.96,254.00
2083.46,255.00
2084.95,254.00
2086.45,265.00
2087.94,286.00
2089.43,233.00
2090.92,233.00
2092.41,255.00
2093.90,265.00
2095.39,243.00
2096.88,276.00
2098.36,318.00
2099.85,276.00
2101.33,254.00
2102.81,254.00
2104.30,265.00
2105.78,265.00
2107.26,276.00
2108.74,254.00
2110.21,254.00
2111.69,286.00
2113.17,297.00
2114.64,222.00
2116.12,222.00
2117.59,223.00
2119.06,296.00
2120.53,307.00
2122.00,264.00
2123.47,255.00
2124.94,244.00
2126.41,254.00
2127.87,202.00
2129.34,276.00
2130.80,265.00
2132.27,255.00
2133.73,244.00
2135.19,255.00
2136.65,254.00
2138.11,254.00
2139.57,233.00
2141.03,254.00
2142.48,254.00
2143.94,255.00
2145.39,265.00
2146.85,244.00
2148.30,233.00
2149.75,275.00
2151.20,255.00
2152.65,233.00
2154.10,223.00
2155.55,276.00
2157.00,286.00
2158.44,296.00
2159.89,233.00
2161.33,201.00
2162.78,233.00
2164.22,275.00
2165.66,275.00
2167.10,275.00
2168.54,254.00
2169.98,254.00
2171.42,255.00
2172.85,233.00
2174.29,212.00
2175.72,222.00
2177.16,212.00
2178.59,233.00
2180.02,222.00
2181.45,244.00
2182.88,254.00
2184.31,233.00
2185.74,233.00
2187.17,275.00
2188.59,244.00
2190.02,212.00
2191.44,212.00
2192.87,265.00
2194.29,201.00
2195.71,212.00
2197.13,201.00
2198.55,190.00
2199.97,223.00
2201.39,212.00
2202.81,191.00
2204.22,233.00
2205.64,254.00
2207.05,233.00
2208.46,212.00
2209.88,190.00
2211.29,191.00
2212.70,233.00
2214.11,212.00
2215.52,201.00
2216.92,212.00
2218.33,212.00
2219.74,264.00
2221.14,244.00
2222.54,223.00
2223.95,223.00
2225.35,264.00
2226.75,212.00
2228.15,255.00
2229.55,233.00
2230.95,201.00
2232.35,211.00
2233.74,202.00
2235.14,233.00
2236.53,233.00
2237.93,233.00
2239.32,223.00
2240.71,223.00
2242.10,201.00
2243.49,212.00
2244.88,223.00
2246.27,233.00
2247.66,222.00
2249.04,190.00
2250.43,191.00
2251.81,180.00
2253.20,191.00
2254.58,170.00
2255.96,191.00
2257.34,149.00
2258.72,191.00
2260.10,169.00
2261.48,201.00
2262.86,244.00
2264.23,222.00
2265.61,138.00
2266.98,148.00
2268.36,212.00
2269.73,212.00
2271.10,223.00
2272.47,223.00
2273.84,222.00
2275.21,212.00
2276.58,212.00
2277.95,170.00
2279.31,180.00
2280.68,128.00
2282.05,180.00
2283.41,212.00
2284.77,191.00
2286.13,212.00
2287.50,180.00
2288.86,158.00
2290.22,170.00
2291.57,127.00
2292.93,117.00
2294.29,138.00
2295.64,148.00
2297.00,169.00
2298.35,191.00
2299.71,191.00
2301.06,191.00
2302.41,254.00
2303.76,180.00
2305.11,138.00
2306.46,170.00
2307.81,148.00
2309.15,180.00
2310.50,191.00
2311.84,180.00
2313.19,191.00
2314.53,190.00
2315.87,180.00
2317.22,159.00
2318.56,138.00
2319.90,201.00
2321.24,244.00
2322.57,212.00
2323.91,170.00
2325.25,180.00
2326.58,170.00
2327.92,170.00
2329.25,191.00
2330.58,201.00
2331.91,169.00
2333.25,128.00
2334.58,170.00
2335.90,169.00
2337.23,201.00
2338.56,212.00
2339.89,212.00
2341.21,159.00
2342.54,106.00
2343.86,170.00
2345.19,190.00
2346.51,233.00
2347.83,244.00
2349.15,201.00
2350.47,159.00
2351.79,149.00
2353.11,149.00
2354.42,159.00
2355.74,117.00
2357.06,148.00
2358.37,149.00
2359.68,148.00
2361.00,170.00
2362.31,202.00
2363.62,148.00
2364.93,148.00
2366.24,170.00
2367.55,180.00
2368.86,138.00
2370.16,116.00
2371.47,95.00
2372.77,84.00
2374.08,138.00
2375.38,169.00
2376.68,170.00
2377.98,169.00
2379.29,137.00
2380.59,148.00
2381.88,105.00
2383.18,138.00
2384.48,170.00
2385.78,180.00
2387.07,159.00
2388.37,148.00
2389.66,127.00
2390.95,149.00
2392.25,202.00
2393.54,170.00
2394.83,127.00
2396.12,85.00
2397.41,106.00
2398.70,180.00
2399.98,148.00
2401.27,84.00
2402.55,127.00
2403.84,138.00
2405.12,148.00
2406.41,149.00
2407.69,106.00
2408.97,127.00
2410.25,138.00
2411.53,127.00
2412.81,128.00
2414.09,149.00
2415.36,116.00
2416.64,116.00
2417.91,127.00
2419.19,148.00
2420.46,169.00
2421.74,190.00
2423.01,159.00
2424.28,170.00
2425.55,149.00
2426.82,148.00
2428.09,212.00
2429.36,202.00
2430.62,117.00
2431.89,106.00
2433.15,106.00
2434.42,148.00
2435.68,212.00
2436.94,170.00
2438.21,138.00
2439.47,170.00
2440.73,170.00
2441.99,117.00
2443.25,106.00
2444.51,148.00
2445.76,169.00
2447.02,201.00
2448.27,138.00
2449.53,137.00
2450.78,127.00
2452.03,149.00
2453.29,127.00
2454.54,148.00
2455.79,170.00
2457.04,148.00
2458.29,148.00
2459.54,148.00
2460.78,138.00
2462.03,128.00
2463.27,148.00
2464.52,170.00
2465.76,191.00
2467.01,127.00
2468.25,127.00
2469.49,148.00
2470.73,212.00
2471.97,201.00
2473.21,117.00
2474.45,43.00
2475.69,64.00
2476.92,85.00
2478.16,85.00
2479.39,127.00
2480.63,149.00
2481.86,117.00
2483.09,95.00
2484.32,127.00
2485.56,127.00
2486.79,106.00
2488.02,85.00
2489.24,127.00
2490.47,105.00
2491.70,85.00
2492.92,127.00
2494.15,116.00
2495.37,127.00
2496.60,169.00
2497.82,148.00
2499.04,96.00
2500.26,148.00
2501.48,148.00
2502.70,128.00
2503.92,149.00
2505.14,106.00
2506.36,138.00
2507.58,138.00
2508.79,106.00
2510.01,137.00
2511.22,148.00
2512.43,149.00
2513.64,128.00
2514.86,138.00
2516.07,149.00
2517.28,106.00
2518.49,96.00
2519.70,106.00
2520.90,127.00
2522.11,117.00
2523.32,127.00
2524.52,149.00
2525.73,138.00
2526.93,138.00
2528.13,106.00
2529.33,64.00
2530.54,53.00
2531.74,106.00
2532.94,64.00
2534.14,64.00
2535.33,85.00
2536.53,96.00
2537.73,106.00
2538.92,85.00
2540.12,127.00
2541.31,64.00
2542.51,85.00
2543.70,106.00
2544.89,127.00
2546.08,64.00
2547.27,74.00
2548.46,85.00
2549.65,85.00
2550.84,74.00
2552.03,106.00
2553.21,117.00
2554.40,85.00
2555.58,42.00
2556.77,42.00
2557.95,85.00
2559.13,127.00
2560.31,116.00
2561.50,106.00
2562.68,96.00
2563.85,64.00
2565.03,75.00
2566.21,106.00
2567.39,148.00
2568.56,149.00
2569.74,63.00
2570.91,53.00
2572.09,85.00
2573.26,106.00
2574.43,106.00
2575.61,106.00
2576.78,106.00
2577.95,84.00
2579.12,106.00
2580.29,137.00
2581.45,106.00
2582.62,85.00
2583.79,85.00
2584.95,85.00
2586.12,127.00
2587.28,127.00
2588.44,116.00
2589.61,117.00
2590.77,148.00
2591.93,127.00
2593.09,85.00
2594.25,106.00
2595.41,159.00
2596.56,138.00
2597.72,106.00
2598.88,74.00
2600.03,84.00
2601.19,53.00
2602.34,53.00
2603.50,74.00
2604.65,116.00
2605.80,138.00
2606.95,96.00
2608.10,137.00
2609.25,127.00
2610.40,117.00
2611.55,106.00
2612.70,85.00
2613.84,32.00
2614.99,63.00
2616.13,85.00
2617.28,106.00
2618.42,117.00
2619.56,85.00
2620.71,106.00
2621.85,127.00
2622.99,106.00
2624.13,127.00
2625.27,117.00
2626.40,127.00
2627.54,117.00
2628.68,106.00
2629.81,85.00
2630.95,106.00
2632.08,127.00
2633.22,127.00
2634.35,127.00
2635.48,106.00
2636.61,85.00
2637.74,64.00
2638.87,63.00
2640.00,85.00
2641.13,85.00
2642.26,106.00
2643.39,63.00
2644.51,85.00
2645.64,63.00
2646.76,11.00
2647.89,53.00
2649.01,42.00
2650.13,96.00
2651.25,106.00
2652.38,53.00
2653.50,63.00
2654.62,106.00
2655.73,74.00
2656.85,96.00
2657.97,106.00
2659.09,75.00
2660.20,84.00
2661.32,85.00
2662.43,95.00
2663.55,116.00
2664.66,106.00
2665.77,85.00
2666.88,74.00
2667.99,64.00
2669.10,106.00
2670.21,74.00
2671.32,64.00
2672.43,52.00
2673.54,53.00
2674.64,85.00
2675.75,74.00
2676.85,95.00
2677.96,85.00
2679.06,106.00
2680.16,106.00
2681.26,74.00
2682.37,42.00
2683.47,85.00
2684.57,43.00
2685.66,106.00
2686.76,117.00
2687.86,84.00
2688.96,74.00
2690.05,74.00
2691.15,85.00
2692.24,127.00
2693.34,85.00
2694.43,43.00
2695.52,64.00
2696.62,32.00
2697.71,53.00
2698.80,63.00
2699.89,106.00
2700.98,105.00
2702.06,85.00
2703.15,64.00
2704.24,105.00
2705.32,117.00
2706.41,52.00
2707.49,52.00
2708.58,85.00
2709.66,95.00
2710.74,64.00
2711.83,52.00
2712.91,74.00
2713.99,85.00
2715.07,105.00
2716.15,106.00
2717.22,85.00
2718.30,53.00
2719.38,85.00
2720.45,106.00
2721.53,85.00
2722.60,64.00
2723.68,85.00
2724.75,85.00
2725.82,106.00
2726.89,84.00
2727.97,63.00
2729.04,74.00
2730.11,43.00
2731.17,53.00
2732.24,64.00
2733.31,85.00
2734.38,106.00
2735.44,85.00
2736.51,95.00
2737.57,63.00
2738.64,32.00
2739.70,42.00
2740.76,63.00
2741.82,95.00
2742.89,84.00
2743.95,84.00
2745.01,85.00
2746.07,85.00
2747.12,74.00
2748.18,74.00
2749.24,106.00
2750.29,74.00
2751.35,64.00
2752.40,63.00
2753.46,85.00
2754.51,85.00
2755.57,64.00
2756.62,64.00
2757.67,84.00
2758.72,52.00
2759.77,10.00
2760.82,63.00
2761.87,106.00
2762.91,63.00
2763.96,53.00
2765.01,74.00
2766.05,21.00
2767.10,11.00
2768.14,85.00
2769.19,32.00
2770.23,43.00
2771.27,85.00
2772.31,64.00
2773.35,42.00
2774.40,105.00
2775.43,149.00
2776.47,116.00
2777.51,85.00
2778.55,84.00
2779.59,43.00
2780.62,42.00
2781.66,42.00
2782.69,0.00
2783.73,32.00
2784.76,63.00
2785.79,85.00
2786.82,75.00
2787.85,84.00
2788.89,42.00
2789.92,-21.00
2790.94,11.00
2791.97,21.00
2793.00,42.00
2794.03,74.00
2795.05,63.00
2796.08,105.00
2797.11,64.00
2798.13,21.00
2799.15,63.00
2800.18,85.00
2801.20,53.00
2802.22,53.00
2803.24,53.00
2804.26,21.00
2805.28,42.00
2806.30,64.00
2807.32,43.00
2808.34,32.00
2809.35,63.00
2810.37,74.00
2811.39,64.00
2812.40,32.00
2813.41,11.00
2814.43,21.00
2815.44,21.00
2816.45,64.00
2817.46,85.00
2818.48,64.00
2819.49,21.00
2820.49,21.00
2821.50,106.00
2822.51,74.00
2823.52,53.00
2824.53,64.00
2825.53,127.00
2826.54,117.00
2827.54,42.00
2828.55,42.00
2829.55,32.00
2830.55,42.00
2831.55,0.00
2832.56,11.00
2833.56,32.00
2834.56,85.00
2835.56,84.00
2836.56,74.00
2837.55,53.00
2838.55,74.00
2839.55,42.00
2840.54,53.00
2841.54,84.00
2842.53,31.00
2843.53,21.00
2844.52,64.00
2845.51,42.00
2846.51,63.00
2847.50,96.00
2848.49,21.00
2849.48,21.00
2850.47,32.00
2851.46,32.00
2852.45,74.00
2853.43,64.00
2854.42,85.00
2855.41,64.00
2856.39,32.00
2857.38,42.00
2858.36,74.00
2859.34,64.00
2860.33,95.00
2861.31,32.00
2862.29,21.00
2863.27,43.00
2864.25,42.00
2865.23,64.00
2866.21,32.00
2867.19,43.00
2868.17,31.00
2869.14,21.00
2870.12,42.00
2871.09,63.00
2872.07,42.00
2873.04,84.00
2874.02,95.00
2874.99,85.00
2875.96,64.00
2876.93,43.00
2877.91,63.00
2878.88,53.00
2879.85,32.00
2880.82,42.00
2881.78,42.00
2882.75,43.00
2883.72,42.00
2884.69,85.00
2885.65,117.00
2886.62,75.00
2887.58,0.00
2888.55,64.00
2889.51,63.00
2890.47,85.00
2891.43,95.00
2892.39,64.00
2893.36,116.00
2894.31,63.00
2895.27,21.00
2896.23,53.00
2897.19,63.00
2898.15,74.00
2899.11,64.00
2900.06,31.00
2901.02,21.00
2901.97,0.00
2902.93,21.00
2903.88,52.00
2904.83,53.00
2905.79,53.00
2906.74,22.00
2907.69,11.00
2908.64,32.00
2909.59,43.00
2910.54,0.00
2911.49,31.00
2912.43,85.00
2913.38,84.00
2914.33,22.00
2915.27,43.00
2916.22,138.00
2917.16,106.00
2918.11,74.00
2919.05,53.00
2919.99,84.00
2920.94,148.00
2921.88,127.00
2922.82,95.00
2923.76,85.00
2924.70,85.00
2925.64,63.00
2926.58,21.00
2927.51,53.00
2928.45,84.00
2929.39,32.00
2930.32,74.00
2931.26,74.00
2932.19,53.00
2933.13,53.00
2934.06,21.00
2934.99,0.00
2935.92,85.00
2936.86,95.00
2937.79,42.00
2938.72,53.00
2939.65,106.00
2940.57,43.00
2941.50,21.00
2942.43,32.00
2943.36,10.00
2944.28,0.00
2945.21,10.00
2946.13,21.00
2947.06,42.00
2947.98,21.00
2948.91,0.00
2949.83,21.00
2950.75,21.00
2951.67,74.00
2952.59,63.00
2953.51,63.00
2954.43,53.00
2955.35,84.00
2956.27,85.00
2957.19,53.00
2958.10,63.00
2959.02,42.00
2959.94,75.00
2960.85,75.00
2961.77,74.00
2962.68,74.00
2963.59,116.00
2964.51,64.00
2965.42,32.00
2966.33,53.00
2967.24,53.00
2968.15,42.00
2969.06,0.00
2969.97,10.00
2970.88,0.00
2971.78,21.00
2972.69,42.00
2973.60,53.00
2974.50,11.00
2975.41,21.00
2976.31,21.00
2977.22,64.00
2978.12,84.00
2979.02,75.00
2979.93,43.00
2980.83,85.00
2981.73,64.00
2982.63,0.00
2983.53,21.00
2984.43,0.00
2985.33,21.00
2986.22,85.00
2987.12,75.00
2988.02,42.00
2988.91,43.00
2989.81,32.00
2990.70,32.00
2991.60,-21.00
2992.49,-21.00
2993.38,32.00
2994.28,32.00
2995.17,42.00
2996.06,95.00
2996.95,53.00
2997.84,21.00
2998.73,0.00
2999.62,0.00
3000.51,0.00
3001.40,10.00
3002.28,-21.00
3003.17,11.00
3004.05,64.00
3004.94,52.00
3005.82,22.00
3006.71,0.00
3007.59,0.00
3008.47,42.00
3009.36,43.00
3010.24,42.00
3011.12,32.00
3012.00,10.00
3012.88,10.00
3013.76,43.00
3014.64,64.00
3015.51,43.00
3016.39,11.00
3017.27,22.00
3018.14,42.00
3019.02,42.00
3019.89,43.00
3020.77,0.00
3021.64,-21.00
3022.52,-21.00
3023.39,0.00
3024.26,64.00
3025.13,32.00
3026.00,32.00
3026.87,21.00
3027.74,63.00
3028.61,53.00
3029.48,10.00
3030.35,32.00
3031.21,75.00
3032.08,11.00
3032.95,-31.00
3033.81,-42.00
3034.68,-21.00
3035.54,21.00
3036.40,21.00
3037.27,-22.00
3038.13,-53.00
3038.99,0.00
3039.85,0.00
3040.71,32.00
3041.57,42.00
3042.43,-21.00
3043.29,0.00
3044.15,21.00
3045.01,42.00
3045.86,32.00
3046.72,0.00
3047.58,21.00
3048.43,22.00
3049.29,42.00
3050.14,43.00
3050.99,32.00
3051.85,64.00
3052.70,42.00
3053.55,63.00
3054.40,85.00
3055.25,10.00
3056.10,53.00
3056.95,75.00
3057.80,43.00
3058.65,0.00
3059.50,0.00
3060.34,0.00
3061.19,-21.00
3062.04,22.00
3062.88,32.00
3063.73,0.00
3064.57,11.00
3065.42,0.00
3066.26,-10.00
3067.10,43.00
3067.94,0.00
3068.78,21.00
3069.63,21.00
3070.47,63.00
3071.31,63.00
3072.14,42.00
3072.98,21.00
3073.82,-10.00
3074.66,-11.00
3075.49,-42.00
3076.33,-32.00
3077.17,42.00
3078.00,10.00
3078.83,21.00
3079.67,11.00
3080.50,32.00
3081.33,11.00
3082.17,42.00
3083.00,52.00
3083.83,32.00
3084.66,32.00
3085.49,32.00
3086.32,42.00
3087.15,32.00
3087.97,21.00
3088.80,21.00
3089.63,32.00
3090.46,42.00
3091.28,21.00
3092.11,11.00
3092.93,42.00
3093.75,11.00
3094.58,63.00
3095.40,74.00
3096.22,42.00
3097.05,0.00
3097.87,53.00
3098.69,42.00
3099.51,10.00
3100.33,10.00
3101.15,0.00
3101.96,-21.00
3102.78,42.00
3103.60,32.00
3104.42,0.00
3105.23,31.00
3106.05,22.00
3106.86,0.00
3107.68,11.00
3108.49,53.00
3109.30,106.00
3110.12,32.00
3110.93,10.00
3111.74,10.00
3112.55,32.00
3113.36,64.00
3114.17,74.00
3114.98,31.00
3115.79,42.00
3116.60,-11.00
3117.40,21.00
3118.21,42.00
3119.02,31.00
3119.82,0.00
3120.63,0.00
3121.43,0.00
3122.24,-42.00
3123.04,-21.00
3123.84,21.00
3124.65,-10.00
3125.45,-53.00
3126.25,-32.00
3127.05,32.00
3127.85,53.00
3128.65,-22.00
3129.45,0.00
3130.25,63.00
3131.05,21.00
3131.84,21.00
3132.64,53.00
3133.44,53.00
3134.23,32.00
3135.03,21.00
3135.82,21.00
3136.62,42.00
3137.41,63.00
3138.20,63.00
3139.00,42.00
3139.79,64.00
3140.58,63.00
3141.37,21.00
3142.16,0.00
3142.95,42.00
3143.74,74.00
3144.53,53.00
3145.32,32.00
3146.10,63.00
3146.89,42.00
3147.68,0.00
3148.46,-42.00
3149.25,0.00
3150.03,74.00
3150.82,63.00
3151.60,10.00
3152.38,32.00
3153.17,42.00
3153.95,10.00
3154.73,0.00
3155.51,11.00
3156.29,-21.00
3157.07,11.00
3157.85,42.00
3158.63,-32.00
3159.41,0.00
3160.18,63.00
3160.96,32.00
3161.74,0.00
3162.51,11.00
3163.29,0.00
3164.06,53.00
3164.84,84.00
3165.61,32.00
3166.38,-10.00
3167.16,21.00
3167.93,53.00
3168.70,42.00
3169.47,63.00
3170.24,32.00
3171.01,-21.00
3171.78,-74.00
3172.55,0.00
3173.32,21.00
3174.09,11.00
3174.85,85.00
3175.62,64.00
3176.39,0.00
3177.15,0.00
3177.92,-21.00
3178.68,10.00
3179.45,42.00
3180.21,43.00
3180.97,32.00
3181.73,32.00
3182.50,0.00
3183.26,21.00
3184.02,21.00
3184.78,53.00
3185.54,85.00
3186.30,84.00
3187.05,53.00
3187.81,32.00
3188.57,0.00
3189.33,21.00
3190.08,11.00
3190.84,11.00
3191.59,21.00
3192.35,31.00
3193.10,0.00
3193.86,-31.00
3194.61,11.00
3195.36,0.00
3196.12,32.00
3196.87,21.00
3197.62,10.00
3198.37,11.00
3199.12,11.00
3199.87,-21.00
3200.62,-10.00
3201.36,0.00
3202.11,43.00
3202.86,10.00
3203.61,21.00
3204.35,-11.00
3205.10,-42.00
3205.84,21.00
3206.59,43.00
3207.33,0.00
3208.08,-43.00
3208.82,-32.00
3209.56,0.00
3210.30,-11.00
3211.05,43.00
3211.79,42.00
3212.53,11.00
3213.27,-31.00
3214.01,-11.00
3214.75,32.00
3215.48,64.00
3216.22,53.00
3216.96,10.00
3217.69,-11.00
3218.43,-21.00
3219.17,-10.00
3219.90,-21.00
3220.64,-21.00
3221.37,21.00
3222.10,43.00
3222.84,11.00
3223.57,10.00
3224.30,32.00
3225.03,21.00
3225.76,32.00
3226.49,32.00
3227.22,-22.00
3227.95,21.00
3228.68,32.00
3229.41,43.00
3230.14,42.00
3230.87,10.00
3231.59,-10.00
3232.32,-11.00
3233.04,-11.00
3233.77,21.00
3234.49,42.00
3235.22,43.00
3235.94,21.00
3236.66,31.00
3237.39,31.00
3238.11,21.00
3238.83,11.00
3239.55,0.00
3240.27,11.00
3240.99,63.00
3241.71,32.00
3242.43,0.00
3243.15,0.00
3243.87,-11.00
3244.58,-63.00
3245.30,-22.00
3246.02,-21.00
3246.73,0.00
3247.45,21.00
3248.16,0.00
3248.88,42.00
3249.59,32.00
3250.30,-42.00
3251.01,-31.00
3251.73,-64.00
3252.44,-53.00
3253.15,-31.00
3253.86,0.00
3254.57,-21.00
3255.28,0.00
3255.99,-22.00
3256.70,-10.00
3257.41,32.00
3258.11,42.00
3258.82,10.00
3259.53,21.00
3260.23,0.00
3260.94,0.00
3261.64,0.00
3262.35,-42.00
3263.05,-10.00
3263.76,42.00
3264.46,10.00
3265.16,63.00
3265.86,31.00
3266.56,0.00
3267.26,0.00
3267.97,0.00
3268.67,0.00
3269.36,64.00
3270.06,32.00
3270.76,63.00
3271.46,42.00
3272.16,0.00
3272.85,0.00
