RamanShift,Intensity
180.91,220.00
183.74,254.00
186.56,275.00
189.39,233.00
192.21,413.00
195.03,582.00
197.84,762.00
200.66,953.00
203.47,1101.00
206.28,1270.00
209.09,1366.00
211.89,1493.00
214.70,1599.00
217.50,1610.00
220.30,1758.00
223.10,1790.00
225.89,1779.00
228.69,1885.00
231.48,2023.00
234.27,1990.00
237.05,1895.00
239.84,1938.00
242.62,1917.00
245.40,1843.00
248.18,1800.00
250.96,1758.00
253.73,1716.00
256.51,1620.00
259.28,1631.00
262.05,1652.00
264.81,1610.00
267.58,1546.00
270.34,1525.00
273.10,1514.00
275.86,1472.00
278.61,1503.00
281.37,1578.00
284.12,1514.00
286.87,1515.00
289.62,1483.00
292.36,1482.00
295.11,1535.00
297.85,1525.00
300.59,1430.00
303.33,1440.00
306.06,1440.00
308.80,1440.00
311.53,1472.00
314.26,1419.00
316.99,1419.00
319.71,1483.00
322.44,1525.00
325.16,1483.00
327.88,1450.00
330.59,1429.00
333.31,1418.00
336.02,1441.00
338.73,1472.00
341.44,1482.00
344.15,1440.00
346.86,1462.00
349.56,1493.00
352.26,1493.00
354.96,1482.00
357.66,1472.00
360.35,1387.00
363.05,1387.00
365.74,1377.00
368.43,1355.00
371.12,1388.00
373.80,1440.00
376.48,1514.00
379.17,1514.00
381.85,1451.00
384.52,1398.00
387.20,1419.00
389.87,1451.00
392.54,1461.00
395.21,1461.00
397.88,1483.00
400.55,1493.00
403.21,1503.00
405.87,1524.00
408.53,1450.00
411.19,1377.00
413.84,1482.00
416.50,1503.00
419.15,1419.00
421.80,1409.00
424.45,1440.00
427.10,1397.00
429.74,1408.00
432.38,1440.00
435.02,1419.00
437.66,1451.00
440.30,1483.00
442.93,1451.00
445.56,1462.00
448.19,1493.00
450.82,1483.00
453.45,1482.00
456.07,1440.00
458.70,1440.00
461.32,1472.00
463.94,1557.00
466.55,1482.00
469.17,1441.00
471.78,1472.00
474.39,1503.00
477.00,1419.00
479.61,1419.00
482.22,1440.00
484.82,1450.00
487.42,1493.00
490.02,1472.00
492.62,1483.00
495.21,1504.00
497.81,1483.00
500.40,1429.00
502.99,1461.00
505.58,1398.00
508.17,1355.00
510.75,1366.00
513.33,1387.00
515.91,1408.00
518.49,1334.00
521.07,1398.00
523.65,1398.00
526.22,1334.00
528.79,1355.00
531.36,1356.00
533.93,1440.00
536.49,1429.00
539.06,1376.00
541.62,1388.00
544.18,1408.00
546.74,1430.00
549.30,1377.00
551.85,1345.00
554.40,1345.00
556.95,1408.00
559.50,1398.00
562.05,1366.00
564.59,1292.00
567.14,1313.00
569.68,1355.00
572.22,1366.00
574.76,1260.00
577.29,1281.00
579.83,1313.00
582.36,1313.00
584.89,1345.00
587.42,1398.00
589.95,1429.00
592.47,1398.00
594.99,1355.00
597.52,1313.00
600.04,1303.00
602.55,1282.00
605.07,1303.00
607.58,1292.00
610.09,1302.00
612.60,1281.00
615.11,1218.00
617.62,1239.00
620.12,1281.00
622.63,1239.00
625.13,1143.00
627.63,1165.00
630.13,1238.00
632.62,1239.00
635.12,1271.00
637.61,1271.00
640.10,1260.00
642.59,1281.00
645.07,1228.00
647.56,1197.00
650.04,1197.00
652.52,1249.00
655.00,1186.00
657.48,1207.00
659.96,1239.00
662.43,1228.00
664.90,1249.00
667.37,1207.00
669.84,1196.00
672.31,1164.00
674.78,1186.00
677.24,1186.00
679.70,1154.00
682.16,1175.00
684.62,1208.00
687.08,1175.00
689.53,1143.00
691.98,1208.00
694.43,1229.00
696.88,1175.00
699.33,1186.00
701.78,1133.00
704.22,1154.00
706.66,1080.00
709.10,1101.00
711.54,1154.00
713.98,1207.00
716.42,1164.00
718.85,1186.00
721.28,1133.00
723.71,1165.00
726.14,1239.00
728.57,1281.00
730.99,1250.00
733.41,1334.00
735.83,1292.00
738.25,1218.00
740.67,1196.00
743.09,1165.00
745.50,1112.00
747.91,1069.00
750.33,1027.00
752.73,1059.00
755.14,1070.00
757.55,1069.00
759.95,1101.00
762.35,1112.00
764.75,1101.00
767.15,1080.00
769.55,1069.00
771.95,1069.00
774.34,1070.00
776.73,1058.00
779.12,1038.00
781.51,995.00
783.90,1016.00
786.28,1027.00
788.67,1048.00
791.05,1037.00
793.43,1006.00
795.80,1048.00
798.18,1048.00
800.56,1038.00
802.93,1070.00
805.30,943.00
807.67,869.00
810.04,1006.00
812.40,1016.00
814.77,995.00
817.13,974.00
819.49,996.00
821.85,974.00
824.21,953.00
826.57,974.00
828.92,985.00
831.27,974.00
833.63,1016.00
835.98,1016.00
838.32,964.00
840.67,932.00
843.01,985.00
845.36,974.00
847.70,921.00
850.04,964.00
852.37,964.00
854.71,932.00
857.05,943.00
859.38,932.00
861.71,879.00
864.04,932.00
866.37,974.00
868.69,911.00
871.02,868.00
873.34,847.00
875.66,868.00
877.98,837.00
880.30,869.00
882.62,889.00
884.93,890.00
887.24,868.00
889.55,921.00
891.86,890.00
894.17,858.00
896.48,868.00
898.78,890.00
901.09,910.00
903.39,922.00
905.69,932.00
907.99,963.00
910.28,931.00
912.58,943.00
914.87,879.00
917.16,901.00
919.45,921.00
921.74,868.00
924.03,901.00
926.31,889.00
928.60,869.00
930.88,911.00
933.16,868.00
935.44,900.00
937.72,921.00
939.99,932.00
942.26,879.00
944.54,858.00
946.81,826.00
949.08,868.00
951.34,868.00
953.61,868.00
955.87,836.00
958.14,847.00
960.40,847.00
962.66,836.00
964.92,837.00
967.17,858.00
969.43,879.00
971.68,879.00
973.93,848.00
976.18,847.00
978.43,868.00
980.68,815.00
982.92,805.00
985.17,720.00
987.41,752.00
989.65,731.00
991.89,773.00
994.12,805.00
996.36,773.00
998.59,783.00
1000.83,805.00
1003.06,784.00
1005.29,773.00
1007.51,752.00
1009.74,763.00
1011.97,794.00
1014.19,742.00
1016.41,794.00
1018.63,826.00
1020.85,783.00
1023.07,794.00
1025.28,805.00
1027.49,752.00
1029.71,741.00
1031.92,751.00
1034.13,752.00
1036.33,752.00
1038.54,783.00
1040.74,762.00
1042.95,742.00
1045.15,751.00
1047.35,720.00
1049.55,699.00
1051.74,720.00
1053.94,730.00
1056.13,741.00
1058.32,752.00
1060.51,784.00
1062.70,762.00
1064.89,752.00
1067.08,720.00
1069.26,752.00
1071.44,783.00
1073.63,784.00
1075.81,784.00
1077.98,741.00
1080.16,710.00
1082.34,678.00
1084.51,731.00
1086.68,731.00
1088.85,720.00
1091.02,667.00
1093.19,699.00
1095.35,699.00
1097.52,699.00
1099.68,699.00
1101.84,678.00
1104.00,741.00
1106.16,741.00
1108.32,699.00
1110.48,751.00
1112.63,720.00
1114.78,688.00
1116.93,720.00
1119.08,784.00
1121.23,741.00
1123.38,656.00
1125.52,657.00
1127.67,657.00
1129.81,677.00
1131.95,688.00
1134.09,698.00
1136.22,678.00
1138.36,656.00
1140.50,667.00
1142.63,635.00
1144.76,603.00
1146.89,699.00
1149.02,667.00
1151.15,625.00
1153.27,677.00
1155.40,667.00
1157.52,614.00
1159.64,667.00
1161.76,678.00
1163.88,699.00
1165.99,667.00
1168.11,657.00
1170.22,636.00
1172.34,636.00
1174.45,572.00
1176.56,572.00
1178.66,582.00
1180.77,614.00
1182.88,614.00
1184.98,551.00
1187.08,561.00
1189.18,582.00
1191.28,635.00
1193.38,710.00
1195.47,635.00
1197.57,614.00
1199.66,645.00
1201.75,635.00
1203.85,635.00
1205.93,624.00
1208.02,625.00
1210.11,667.00
1212.19,572.00
1214.28,614.00
1216.36,625.00
1218.44,615.00
1220.52,657.00
1222.59,636.00
1224.67,593.00
1226.74,603.00
1228.82,604.00
1230.89,646.00
1232.96,625.00
1235.03,614.00
1237.10,604.00
1239.16,614.00
1241.23,614.00
1243.29,582.00
1245.35,551.00
1247.41,614.00
1249.47,582.00
1251.53,603.00
1253.58,603.00
1255.64,614.00
1257.69,656.00
1259.74,625.00
1261.79,614.00
1263.84,614.00
1265.89,625.00
1267.93,614.00
1269.98,572.00
1272.02,582.00
1274.06,593.00
1276.10,624.00
1278.14,614.00
1280.18,582.00
1282.22,572.00
1284.25,572.00
1286.28,529.00
1288.32,529.00
1290.35,519.00
1292.38,530.00
1294.40,519.00
1296.43,550.00
1298.46,540.00
1300.48,519.00
1302.50,529.00
1304.52,498.00
1306.54,540.00
1308.56,551.00
1310.58,562.00
1312.59,593.00
1314.60,636.00
1316.62,625.00
1318.63,593.00
1320.64,561.00
1322.65,646.00
1324.65,667.00
1326.66,656.00
1328.66,635.00
1330.66,614.00
1332.67,593.00
1334.67,624.00
1336.66,635.00
1338.66,645.00
1340.66,571.00
1342.65,561.00
1344.65,593.00
1346.64,561.00
1348.63,540.00
1350.62,551.00
1352.60,572.00
1354.59,550.00
1356.57,529.00
1358.56,561.00
1360.54,529.00
1362.52,529.00
1364.50,550.00
1366.48,561.00
1368.46,551.00
1370.43,572.00
1372.41,561.00
1374.38,519.00
1376.35,498.00
1378.32,488.00
1380.29,508.00
1382.25,561.00
1384.22,497.00
1386.18,477.00
1388.15,509.00
1390.11,477.00
1392.07,477.00
1394.03,529.00
1395.99,488.00
1397.94,519.00
1399.90,540.00
1401.85,508.00
1403.80,498.00
1405.76,561.00
1407.71,561.00
1409.65,529.00
1411.60,509.00
1413.55,508.00
1415.49,519.00
1417.44,509.00
1419.38,529.00
1421.32,519.00
1423.26,466.00
1425.19,476.00
1427.13,487.00
1429.07,508.00
1431.00,497.00
1432.93,487.00
1434.86,476.00
1436.79,444.00
1438.72,529.00
1440.65,508.00
1442.57,508.00
1444.50,508.00
1446.42,455.00
1448.34,445.00
1450.26,444.00
1452.18,455.00
1454.10,445.00
1456.02,456.00
1457.93,508.00
1459.85,508.00
1461.76,540.00
1463.67,550.00
1465.58,498.00
1467.49,498.00
1469.40,551.00
1471.31,530.00
1473.21,477.00
1475.11,487.00
1477.02,519.00
1478.92,476.00
1480.82,424.00
1482.72,434.00
1484.61,498.00
1486.51,519.00
1488.40,498.00
1490.30,456.00
1492.19,423.00
1494.08,424.00
1495.97,444.00
1497.86,444.00
1499.74,445.00
1501.63,435.00
1503.51,423.00
1505.40,402.00
1507.28,445.00
1509.16,435.00
1511.04,445.00
1512.92,423.00
1514.79,402.00
1516.67,413.00
1518.54,445.00
1520.42,423.00
1522.29,424.00
1524.16,465.00
1526.03,466.00
1527.89,455.00
1529.76,445.00
1531.63,456.00
1533.49,424.00
1535.35,402.00
1537.21,382.00
1539.07,413.00
1540.93,445.00
1542.79,487.00
1544.65,466.00
1546.50,381.00
1548.36,381.00
1550.21,371.00
1552.06,402.00
1553.91,370.00
1555.76,371.00
1557.61,424.00
1559.45,403.00
1561.30,402.00
1563.14,391.00
1564.98,381.00
1566.82,402.00
1568.67,444.00
1570.50,445.00
1572.34,392.00
1574.18,360.00
1576.01,370.00
1577.85,350.00
1579.68,403.00
1581.51,328.00
1583.34,392.00
1585.17,360.00
1587.00,339.00
1588.82,403.00
1590.65,402.00
1592.47,381.00
1594.30,424.00
1596.12,392.00
1597.94,403.00
1599.76,413.00
1601.57,360.00
1603.39,360.00
1605.21,392.00
1607.02,360.00
1608.83,349.00
1610.64,339.00
1612.45,318.00
1614.26,328.00
1616.07,339.00
1617.88,360.00
1619.68,392.00
1621.49,360.00
1623.29,339.00
1625.09,338.00
1626.89,318.00
1628.69,328.00
1630.49,339.00
1632.29,371.00
1634.08,339.00
1635.88,317.00
1637.67,339.00
1639.46,360.00
1641.25,371.00
1643.04,349.00
1644.83,328.00
1646.62,381.00
1648.41,360.00
1650.19,329.00
1651.97,350.00
1653.76,296.00
1655.54,296.00
1657.32,339.00
1659.10,350.00
1660.88,339.00
1662.65,360.00
1664.43,424.00
1666.20,360.00
1667.97,317.00
1669.75,360.00
1671.52,381.00
1673.29,275.00
1675.05,328.00
1676.82,403.00
1678.59,328.00
1680.35,264.00
1682.11,275.00
1683.88,360.00
1685.64,318.00
1687.40,296.00
1689.16,339.00
1690.91,318.00
1692.67,328.00
1694.42,339.00
1696.18,328.00
1697.93,264.00
1699.68,233.00
1701.43,275.00
1703.18,307.00
1704.93,360.00
1706.68,371.00
1708.42,307.00
1710.17,297.00
1711.91,275.00
1713.65,296.00
1715.39,254.00
1717.13,254.00
1718.87,307.00
1720.61,307.00
1722.35,318.00
1724.08,318.00
1725.81,296.00
1727.55,243.00
1729.28,275.00
1731.01,318.00
1732.74,318.00
1734.47,317.00
1736.19,329.00
1737.92,328.00
1739.64,339.00
1741.37,307.00
1743.09,329.00
1744.81,339.00
1746.53,276.00
1748.25,264.00
1749.97,296.00
1751.68,275.00
1753.40,265.00
1755.11,297.00
1756.83,318.00
1758.54,328.00
1760.25,296.00
1761.96,276.00
1763.67,297.00
1765.38,339.00
1767.08,275.00
1768.79,297.00
1770.49,297.00
1772.19,254.00
1773.90,254.00
1775.60,244.00
1777.30,254.00
1778.99,233.00
1780.69,275.00
1782.39,297.00
1784.08,286.00
1785.78,307.00
1787.47,297.00
1789.16,275.00
1790.85,297.00
1792.54,286.00
1794.23,254.00
1795.91,275.00
1797.60,338.00
1799.28,286.00
1800.97,307.00
1802.65,254.00
1804.33,222.00
1806.01,265.00
1807.69,254.00
1809.37,212.00
1811.05,275.00
1812.72,244.00
1814.40,275.00
1816.07,254.00
1817.74,275.00
1819.41,212.00
1821.08,223.00
1822.75,254.00
1824.42,275.00
1826.09,276.00
1827.75,264.00
1829.42,223.00
1831.08,265.00
1832.74,275.00
1834.40,275.00
1836.06,286.00
1837.72,276.00
1839.38,254.00
1841.04,275.00
1842.69,233.00
1844.35,244.00
1846.00,255.00
1847.65,255.00
1849.30,244.00
1850.95,243.00
1852.60,307.00
1854.25,254.00
1855.90,212.00
1857.54,191.00
1859.19,233.00
1860.83,212.00
1862.47,212.00
1864.12,201.00
1865.76,191.00
1867.40,222.00
1869.03,254.00
1870.67,233.00
1872.31,201.00
1873.94,169.00
1875.57,201.00
1877.21,255.00
1878.84,254.00
1880.47,244.00
1882.10,212.00
1883.73,170.00
1885.35,223.00
1886.98,244.00
1888.61,212.00
1890.23,254.00
1891.85,264.00
1893.47,286.00
1895.09,233.00
1896.71,180.00
1898.33,180.00
1899.95,212.00
1901.57,222.00
1903.18,233.00
1904.80,212.00
1906.41,222.00
1908.02,222.00
1909.63,127.00
1911.24,148.00
1912.85,222.00
1914.46,201.00
1916.07,148.00
1917.67,149.00
1919.28,170.00
1920.88,233.00
1922.48,201.00
1924.08,243.00
1925.68,254.00
1927.28,233.00
1928.88,233.00
1930.48,244.00
1932.07,211.00
1933.67,191.00
1935.26,191.00
1936.86,201.00
1938.45,201.00
1940.04,170.00
1941.63,148.00
1943.22,149.00
1944.80,233.00
1946.39,244.00
1947.98,244.00
1949.56,212.00
1951.14,201.00
1952.73,212.00
1954.31,191.00
1955.89,211.00
1957.47,202.00
1959.05,191.00
1960.62,170.00
1962.20,170.00
1963.77,169.00
1965.35,170.00
1966.92,212.00
1968.49,243.00
1970.06,212.00
1971.63,148.00
1973.20,170.00
1974.77,201.00
1976.34,190.00
1977.90,169.00
1979.47,180.00
1981.03,170.00
1982.59,127.00
1984.15,180.00
1985.71,212.00
1987.27,159.00
1988.83,191.00
1990.39,170.00
1991.94,191.00
1993.50,222.00
1995.05,170.00
1996.61,201.00
1998.16,243.00
1999.71,233.00
2001.26,222.00
2002.81,201.00
2004.36,191.00
2005.91,159.00
2007.45,159.00
2009.00,191.00
2010.54,223.00
2012.08,254.00
2013.62,201.00
2015.17,170.00
2016.71,170.00
2018.24,148.00
2019.78,170.00
2021.32,159.00
2022.85,149.00
2024.39,169.00
2025.92,191.00
2027.46,212.00
2028.99,148.00
2030.52,138.00
2032.05,159.00
2033.58,180.00
2035.10,169.00
2036.63,138.00
2038.16,191.00
2039.68,212.00
2041.21,201.00
2042.73,201.00
2044.25,180.00
2045.77,233.00
2047.29,233.00
2048.81,201.00
2050.33,190.00
2051.84,201.00
2053.36,159.00
2054.87,191.00
2056.39,202.00
2057.90,148.00
2059.41,169.00
2060.92,180.00
2062.43,190.00
2063.94,148.00
2065.45,159.00
2066.95,148.00
2068.46,212.00
2069.96,191.00
2071.47,148.00
2072.97,127.00
2074.47,170.00
2075.97,191.00
2077.47,170.00
2078.97,170.00
2080.47,149.00
2081.96,170.00
2083.46,169.00
2084.95,191.00
2086.45,191.00
2087.94,170.00
2089.43,149.00
2090.92,170.00
2092.41,149.00
2093.90,148.00
2095.39,170.00
2096.88,190.00
2098.36,159.00
2099.85,180.00
2101.33,128.00
2102.81,191.00
2104.30,180.00
2105.78,127.00
2107.26,148.00
2108.74,170.00
2110.21,148.00
2111.69,169.00
2113.17,159.00
2114.64,148.00
2116.12,138.00
2117.59,106.00
2119.06,64.00
2120.53,106.00
2122.00,148.00
2123.47,138.00
2124.94,148.00
2126.41,127.00
2127.87,105.00
2129.34,149.00
2130.80,169.00
2132.27,180.00
2133.73,127.00
2135.19,148.00
2136.65,202.00
2138.11,159.00
2139.57,127.00
2141.03,159.00
2142.48,159.00
2143.94,138.00
2145.39,96.00
2146.85,106.00
2148.30,116.00
2149.75,117.00
2151.20,95.00
2152.65,138.00
2154.10,138.00
2155.55,148.00
2157.00,149.00
2158.44,190.00
2159.89,170.00
2161.33,127.00
2162.78,191.00
2164.22,148.00
2165.66,148.00
2167.10,149.00
2168.54,127.00
2169.98,138.00
2171.42,137.00
2172.85,105.00
2174.29,106.00
2175.72,127.00
2177.16,116.00
2178.59,117.00
2180.02,127.00
2181.45,127.00
2182.88,148.00
2184.31,138.00
2185.74,116.00
2187.17,148.00
2188.59,105.00
2190.02,127.00
2191.44,106.00
2192.87,127.00
2194.29,117.00
2195.71,106.00
2197.13,106.00
2198.55,95.00
2199.97,137.00
2201.39,127.00
2202.81,95.00
2204.22,159.00
2205.64,148.00
2207.05,137.00
2208.46,127.00
2209.88,127.00
2211.29,148.00
2212.70,148.00
2214.11,148.00
2215.52,169.00
2216.92,127.00
2218.33,85.00
2219.74,127.00
2221.14,117.00
2222.54,85.00
2223.95,106.00
2225.35,74.00
2226.75,85.00
2228.15,127.00
2229.55,74.00
2230.95,106.00
2232.35,105.00
2233.74,63.00
2235.14,84.00
2236.53,85.00
2237.93,148.00
2239.32,158.00
2240.71,158.00
2242.10,84.00
2243.49,64.00
2244.88,127.00
2246.27,106.00
2247.66,137.00
2249.04,128.00
2250.43,85.00
2251.81,127.00
2253.20,148.00
2254.58,169.00
2255.96,117.00
2257.34,106.00
2258.72,127.00
2260.10,106.00
2261.48,106.00
2262.86,127.00
2264.23,159.00
2265.61,148.00
2266.98,127.00
2268.36,148.00
2269.73,116.00
2271.10,127.00
2272.47,63.00
2273.84,95.00
2275.21,127.00
2276.58,106.00
2277.95,117.00
2279.31,148.00
2280.68,170.00
2282.05,148.00
2283.41,106.00
2284.77,85.00
2286.13,84.00
2287.50,106.00
2288.86,106.00
2290.22,148.00
2291.57,148.00
2292.93,148.00
2294.29,169.00
2295.64,148.00
2297.00,127.00
2298.35,85.00
2299.71,96.00
2301.06,127.00
2302.41,96.00
2303.76,95.00
2305.11,85.00
2306.46,138.00
2307.81,127.00
2309.15,95.00
2310.50,85.00
2311.84,85.00
2313.19,74.00
2314.53,84.00
2315.87,85.00
2317.22,106.00
2318.56,106.00
2319.90,117.00
2321.24,106.00
2322.57,96.00
2323.91,169.00
2325.25,158.00
2326.58,105.00
2327.92,148.00
2329.25,117.00
2330.58,85.00
2331.91,127.00
2333.25,169.00
2334.58,148.00
2335.90,116.00
2337.23,85.00
2338.56,106.00
2339.89,106.00
2341.21,63.00
2342.54,106.00
2343.86,148.00
2345.19,106.00
2346.51,84.00
2347.83,84.00
2349.15,106.00
2350.47,96.00
2351.79,53.00
2353.11,42.00
2354.42,85.00
2355.74,85.00
2357.06,63.00
2358.37,95.00
2359.68,74.00
2361.00,21.00
2362.31,53.00
2363.62,43.00
2364.93,53.00
2366.24,53.00
2367.55,43.00
2368.86,53.00
2370.16,64.00
2371.47,85.00
2372.77,64.00
2374.08,53.00
2375.38,85.00
2376.68,74.00
2377.98,63.00
2379.29,105.00
2380.59,85.00
2381.88,43.00
2383.18,63.00
2384.48,74.00
2385.78,85.00
2387.07,117.00
2388.37,85.00
2389.66,106.00
2390.95,85.00
2392.25,74.00
2393.54,64.00
2394.83,64.00
2396.12,64.00
2397.41,64.00
2398.70,63.00
2399.98,43.00
2401.27,64.00
2402.55,74.00
2403.84,74.00
2405.12,95.00
2406.41,148.00
2407.69,138.00
2408.97,95.00
2410.25,127.00
2411.53,106.00
2412.81,85.00
2414.09,74.00
2415.36,96.00
2416.64,127.00
2417.91,95.00
2419.19,84.00
2420.46,74.00
2421.74,43.00
2423.01,106.00
2424.28,53.00
2425.55,85.00
2426.82,105.00
2428.09,74.00
2429.36,53.00
2430.62,85.00
2431.89,96.00
2433.15,127.00
2434.42,116.00
2435.68,127.00
2436.94,127.00
2438.21,138.00
2439.47,127.00
2440.73,127.00
2441.99,127.00
2443.25,85.00
2444.51,64.00
2445.76,74.00
2447.02,85.00
2448.27,74.00
2449.53,63.00
2450.78,85.00
2452.03,43.00
2453.29,96.00
2454.54,84.00
2455.79,95.00
2457.04,127.00
2458.29,74.00
2459.54,63.00
2460.78,43.00
2462.03,85.00
2463.27,116.00
2464.52,106.00
2465.76,116.00
2467.01,74.00
2468.25,0.00
2469.49,63.00
2470.73,106.00
2471.97,116.00
2473.21,85.00
2474.45,42.00
2475.69,42.00
2476.92,63.00
2478.16,53.00
2479.39,42.00
2480.63,106.00
2481.86,85.00
2483.09,53.00
2484.32,63.00
2485.56,95.00
2486.79,106.00
2488.02,74.00
2489.24,42.00
2490.47,43.00
2491.70,31.00
2492.92,74.00
2494.15,64.00
2495.37,53.00
2496.60,42.00
2497.82,63.00
2499.04,106.00
2500.26,105.00
2501.48,53.00
2502.70,64.00
2503.92,85.00
2505.14,53.00
2506.36,43.00
2507.58,42.00
2508.79,53.00
2510.01,63.00
2511.22,149.00
2512.43,159.00
2513.64,85.00
2514.86,32.00
2516.07,21.00
2517.28,21.00
2518.49,84.00
2519.70,74.00
2520.90,63.00
2522.11,21.00
2523.32,84.00
2524.52,116.00
2525.73,64.00
2526.93,63.00
2528.13,85.00
2529.33,85.00
2530.54,64.00
2531.74,53.00
2532.94,53.00
2534.14,42.00
2535.33,53.00
2536.53,74.00
2537.73,74.00
2538.92,32.00
2540.12,85.00
2541.31,106.00
2542.51,64.00
2543.70,43.00
2544.89,74.00
2546.08,74.00
2547.27,42.00
2548.46,64.00
2549.65,106.00
2550.84,85.00
2552.03,42.00
2553.21,63.00
2554.40,74.00
2555.58,10.00
2556.77,11.00
2557.95,31.00
2559.13,85.00
2560.31,53.00
2561.50,53.00
2562.68,74.00
2563.85,53.00
2565.03,74.00
2566.21,85.00
2567.39,42.00
2568.56,64.00
2569.74,43.00
2570.91,64.00
2572.09,64.00
2573.26,43.00
2574.43,11.00
2575.61,42.00
2576.78,64.00
2577.95,85.00
2579.12,85.00
2580.29,85.00
2581.45,127.00
2582.62,127.00
2583.79,127.00
2584.95,106.00
2586.12,21.00
2587.28,11.00
2588.44,53.00
2589.61,84.00
2590.77,64.00
2591.93,53.00
2593.09,11.00
2594.25,64.00
2595.41,75.00
2596.56,84.00
2597.72,74.00
2598.88,42.00
2600.03,53.00
2601.19,74.00
2602.34,63.00
2603.50,42.00
2604.65,31.00
2605.80,74.00
2606.95,63.00
2608.10,43.00
2609.25,32.00
2610.40,32.00
2611.55,43.00
2612.70,53.00
2613.84,85.00
2614.99,74.00
2616.13,85.00
2617.28,85.00
2618.42,74.00
2619.56,52.00
2620.71,-10.00
2621.85,53.00
2622.99,74.00
2624.13,84.00
2625.27,53.00
2626.40,42.00
2627.54,85.00
2628.68,74.00
2629.81,85.00
2630.95,53.00
2632.08,42.00
2633.22,53.00
2634.35,84.00
2635.48,74.00
2636.61,53.00
2637.74,11.00
2638.87,64.00
2640.00,85.00
2641.13,64.00
2642.26,63.00
2643.39,32.00
2644.51,53.00
2645.64,64.00
2646.76,63.00
2647.89,42.00
2649.01,63.00
2650.13,43.00
2651.25,42.00
2652.38,11.00
2653.50,21.00
2654.62,42.00
2655.73,11.00
2656.85,21.00
2657.97,11.00
2659.09,0.00
2660.20,32.00
2661.32,74.00
2662.43,53.00
2663.55,32.00
2664.66,31.00
2665.77,64.00
2666.88,32.00
2667.99,42.00
2669.10,0.00
2670.21,22.00
2671.32,32.00
2672.43,74.00
2673.54,32.00
2674.64,0.00
2675.75,21.00
2676.85,43.00
2677.96,53.00
2679.06,85.00
2680.16,64.00
2681.26,11.00
2682.37,22.00
2683.47,32.00
2684.57,32.00
2685.66,64.00
2686.76,84.00
2687.86,43.00
2688.96,64.00
2690.05,43.00
2691.15,85.00
2692.24,74.00
2693.34,74.00
2694.43,32.00
2695.52,21.00
2696.62,42.00
2697.71,32.00
2698.80,21.00
2699.89,53.00
2700.98,64.00
2702.06,32.00
2703.15,74.00
2704.24,85.00
2705.32,63.00
2706.41,64.00
2707.49,42.00
2708.58,42.00
2709.66,63.00
2710.74,63.00
2711.83,74.00
2712.91,74.00
2713.99,64.00
2715.07,53.00
2716.15,53.00
2717.22,-11.00
2718.30,21.00
2719.38,42.00
2720.45,53.00
2721.53,21.00
2722.60,42.00
2723.68,43.00
2724.75,43.00
2725.82,43.00
2726.89,31.00
2727.97,43.00
2729.04,21.00
2730.11,85.00
2731.17,63.00
2732.24,42.00
2733.31,63.00
2734.38,53.00
2735.44,53.00
2736.51,32.00
2737.57,22.00
2738.64,10.00
2739.70,11.00
2740.76,64.00
2741.82,84.00
2742.89,85.00
2743.95,74.00
2745.01,84.00
2746.07,74.00
2747.12,43.00
2748.18,21.00
2749.24,53.00
2750.29,10.00
2751.35,21.00
2752.40,53.00
2753.46,21.00
2754.51,42.00
2755.57,63.00
2756.62,74.00
2757.67,64.00
2758.72,10.00
2759.77,22.00
2760.82,43.00
2761.87,32.00
2762.91,42.00
2763.96,53.00
2765.01,21.00
2766.05,31.00
2767.10,74.00
2768.14,74.00
2769.19,85.00
2770.23,42.00
2771.27,0.00
2772.31,74.00
2773.35,85.00
2774.40,42.00
2775.43,21.00
2776.47,32.00
2777.51,21.00
2778.55,21.00
2779.59,42.00
2780.62,53.00
2781.66,-21.00
2782.69,10.00
2783.73,11.00
2784.76,43.00
2785.79,42.00
2786.82,63.00
2787.85,95.00
2788.89,85.00
2789.92,32.00
2790.94,0.00
2791.97,53.00
2793.00,53.00
2794.03,32.00
2795.05,105.00
2796.08,74.00
2797.11,42.00
2798.13,21.00
2799.15,32.00
2800.18,42.00
2801.20,42.00
2802.22,43.00
2803.24,31.00
2804.26,21.00
2805.28,22.00
2806.30,21.00
2807.32,53.00
2808.34,74.00
2809.35,74.00
2810.37,85.00
2811.39,74.00
2812.40,53.00
2813.41,95.00
2814.43,21.00
2815.44,21.00
2816.45,21.00
2817.46,32.00
2818.48,53.00
2819.49,32.00
2820.49,42.00
2821.50,21.00
2822.51,21.00
2823.52,43.00
2824.53,21.00
2825.53,0.00
2826.54,11.00
2827.54,0.00
2828.55,22.00
2829.55,31.00
2830.55,42.00
2831.55,42.00
2832.56,42.00
2833.56,42.00
2834.56,53.00
2835.56,52.00
2836.56,64.00
2837.55,43.00
2838.55,32.00
2839.55,43.00
2840.54,32.00
2841.54,32.00
2842.53,21.00
2843.53,32.00
2844.52,53.00
2845.51,21.00
2846.51,43.00
2847.50,84.00
2848.49,84.00
2849.48,63.00
2850.47,106.00
2851.46,74.00
2852.45,63.00
2853.43,42.00
2854.42,32.00
2855.41,0.00
2856.39,-21.00
2857.38,-32.00
2858.36,11.00
2859.34,42.00
2860.33,52.00
2861.31,42.00
2862.29,22.00
2863.27,64.00
2864.25,95.00
2865.23,63.00
2866.21,21.00
2867.19,21.00
2868.17,0.00
2869.14,-21.00
2870.12,0.00
2871.09,0.00
2872.07,-21.00
2873.04,21.00
2874.02,43.00
2874.99,43.00
2875.96,10.00
2876.93,42.00
2877.91,53.00
2878.88,43.00
2879.85,42.00
2880.82,22.00
2881.78,11.00
2882.75,43.00
2883.72,21.00
2884.69,0.00
2885.65,0.00
2886.62,31.00
2887.58,32.00
2888.55,21.00
2889.51,-42.00
2890.47,11.00
2891.43,0.00
2892.39,-22.00
2893.36,-21.00
2894.31,0.00
2895.27,-31.00
2896.23,-21.00
2897.19,10.00
2898.15,21.00
2899.11,53.00
2900.06,32.00
2901.02,10.00
2901.97,-32.00
2902.93,42.00
2903.88,32.00
2904.83,0.00
2905.79,42.00
2906.74,43.00
2907.69,21.00
2908.64,42.00
2909.59,-11.00
2910.54,0.00
2911.49,52.00
2912.43,31.00
2913.38,22.00
2914.33,42.00
2915.27,21.00
2916.22,21.00
2917.16,75.00
2918.11,53.00
2919.05,21.00
2919.99,42.00
2920.94,43.00
2921.88,74.00
2922.82,32.00
2923.76,21.00
2924.70,31.00
2925.64,0.00
2926.58,42.00
2927.51,64.00
2928.45,32.00
2929.39,42.00
2930.32,64.00
2931.26,64.00
2932.19,32.00
2933.13,21.00
2934.06,-21.00
2934.99,-21.00
2935.92,10.00
2936.86,43.00
2937.79,75.00
2938.72,74.00
2939.65,22.00
2940.57,21.00
2941.50,21.00
2942.43,22.00
2943.36,52.00
2944.28,43.00
2945.21,21.00
2946.13,21.00
2947.06,53.00
2947.98,42.00
2948.91,21.00
2949.83,21.00
2950.75,42.00
2951.67,-21.00
2952.59,0.00
2953.51,-11.00
2954.43,21.00
2955.35,21.00
2956.27,21.00
2957.19,21.00
2958.10,75.00
2959.02,85.00
2959.94,42.00
2960.85,32.00
2961.77,74.00
2962.68,74.00
2963.59,42.00
2964.51,0.00
2965.42,0.00
2966.33,10.00
2967.24,0.00
2968.15,85.00
2969.06,106.00
2969.97,21.00
2970.88,21.00
2971.78,0.00
2972.69,-11.00
2973.60,0.00
2974.50,10.00
2975.41,64.00
2976.31,43.00
2977.22,0.00
2978.12,0.00
2979.02,-42.00
2979.93,21.00
2980.83,-21.00
2981.73,-21.00
2982.63,21.00
2983.53,11.00
2984.43,42.00
2985.33,32.00
2986.22,64.00
2987.12,11.00
2988.02,-21.00
2988.91,32.00
2989.81,21.00
2990.70,0.00
2991.60,-22.00
2992.49,0.00
2993.38,0.00
2994.28,52.00
2995.17,22.00
2996.06,10.00
2996.95,42.00
2997.84,53.00
2998.73,22.00
2999.62,21.00
3000.51,43.00
3001.40,84.00
3002.28,21.00
3003.17,21.00
3004.05,21.00
3004.94,43.00
3005.82,32.00
3006.71,21.00
3007.59,0.00
3008.47,21.00
3009.36,0.00
3010.24,-42.00
3011.12,-21.00
3012.00,31.00
3012.88,-10.00
3013.76,21.00
3014.64,0.00
3015.51,0.00
3016.39,21.00
3017.27,42.00
3018.14,64.00
3019.02,43.00
3019.89,-21.00
3020.77,-32.00
3021.64,0.00
3022.52,0.00
3023.39,21.00
3024.26,64.00
3025.13,84.00
3026.00,32.00
3026.87,0.00
3027.74,0.00
3028.61,22.00
3029.48,74.00
3030.35,32.00
3031.21,42.00
3032.08,22.00
3032.95,-22.00
3033.81,-53.00
3034.68,-11.00
3035.54,0.00
3036.40,43.00
3037.27,42.00
3038.13,0.00
3038.99,21.00
3039.85,22.00
3040.71,0.00
3041.57,0.00
3042.43,0.00
3043.29,-11.00
3044.15,0.00
3045.01,21.00
3045.86,0.00
3046.72,0.00
3047.58,21.00
3048.43,32.00
3049.29,32.00
3050.14,32.00
3050.99,-21.00
3051.85,43.00
3052.70,32.00
3053.55,21.00
3054.40,11.00
3055.25,10.00
3056.10,0.00
3056.95,-21.00
3057.80,-10.00
3058.65,-21.00
3059.50,-21.00
3060.34,42.00
3061.19,74.00
3062.04,31.00
3062.88,-32.00
3063.73,-32.00
3064.57,-42.00
3065.42,21.00
3066.26,85.00
3067.10,42.00
3067.94,31.00
3068.78,32.00
3069.63,21.00
3070.47,0.00
3071.31,-42.00
3072.14,-11.00
3072.98,0.00
3073.82,10.00
3074.66,21.00
3075.49,-10.00
3076.33,-11.00
3077.17,0.00
3078.00,42.00
3078.83,32.00
3079.67,0.00
3080.50,-11.00
3081.33,21.00
3082.17,0.00
3083.00,53.00
3083.83,21.00
3084.66,0.00
3085.49,22.00
3086.32,0.00
3087.15,0.00
3087.97,43.00
3088.80,11.00
3089.63,0.00
3090.46,-21.00
3091.28,21.00
3092.11,-21.00
3092.93,-32.00
3093.75,21.00
3094.58,21.00
3095.40,0.00
3096.22,-21.00
3097.05,0.00
3097.87,11.00
3098.69,0.00
3099.51,-31.00
3100.33,-42.00
3101.15,-31.00
3101.96,-43.00
3102.78,-10.00
3103.60,-21.00
3104.42,-74.00
3105.23,-75.00
3106.05,-32.00
3106.86,0.00
3107.68,0.00
3108.49,-10.00
3109.30,42.00
3110.12,10.00
3110.93,0.00
3111.74,42.00
3112.55,21.00
3113.36,42.00
3114.17,0.00
3114.98,-42.00
3115.79,-21.00
3116.60,-11.00
3117.40,21.00
3118.21,-21.00
3119.02,-10.00
3119.82,-21.00
3120.63,-10.00
3121.43,0.00
3122.24,0.00
3123.04,-42.00
3123.84,-32.00
3124.65,-11.00
3125.45,42.00
3126.25,10.00
3127.05,32.00
3127.85,31.00
3128.65,43.00
3129.45,11.00
3130.25,0.00
3131.05,-32.00
3131.84,-64.00
3132.64,-32.00
3133.44,42.00
3134.23,32.00
3135.03,-11.00
3135.82,0.00
3136.62,32.00
3137.41,0.00
3138.20,0.00
3139.00,0.00
3139.79,-42.00
3140.58,-11.00
3141.37,22.00
3142.16,0.00
3142.95,22.00
3143.74,64.00
3144.53,32.00
3145.32,53.00
3146.10,64.00
3146.89,64.00
3147.68,32.00
3148.46,-11.00
3149.25,21.00
3150.03,42.00
3150.82,42.00
3151.60,0.00
3152.38,21.00
3153.17,43.00
3153.95,43.00
3154.73,22.00
3155.51,-42.00
3156.29,-10.00
3157.07,-21.00
3157.85,-22.00
3158.63,43.00
3159.41,21.00
3160.18,21.00
3160.96,42.00
3161.74,-10.00
3162.51,63.00
3163.29,21.00
3164.06,-22.00
3164.84,-11.00
3165.61,0.00
3166.38,-21.00
3167.16,-53.00
3167.93,-22.00
3168.70,11.00
3169.47,-21.00
3170.24,-32.00
3171.01,0.00
3171.78,0.00
3172.55,-11.00
3173.32,0.00
3174.09,0.00
3174.85,-42.00
3175.62,21.00
3176.39,0.00
3177.15,21.00
3177.92,21.00
3178.68,0.00
3179.45,-64.00
3180.21,-53.00
3180.97,0.00
3181.73,64.00
3182.50,53.00
3183.26,32.00
3184.02,21.00
3184.78,74.00
3185.54,22.00
3186.30,0.00
3187.05,0.00
3187.81,10.00
3188.57,-32.00
3189.33,-21.00
3190.08,21.00
3190.84,32.00
3191.59,22.00
3192.35,10.00
3193.10,10.00
3193.86,11.00
3194.61,32.00
3195.36,0.00
3196.12,-11.00
3196.87,-22.00
3197.62,-21.00
3198.37,-32.00
3199.12,-32.00
3199.87,10.00
3200.62,42.00
3201.36,42.00
3202.11,85.00
3202.86,21.00
3203.61,-11.00
3204.35,-53.00
3205.10,-85.00
3205.84,-21.00
3206.59,-11.00
3207.33,-21.00
3208.08,0.00
3208.82,32.00
3209.56,32.00
3210.30,21.00
3211.05,-42.00
3211.79,10.00
3212.53,21.00
3213.27,-43.00
3214.01,-32.00
3214.75,-22.00
3215.48,-63.00
3216.22,-74.00
3216.96,-63.00
3217.69,0.00
3218.43,-52.00
3219.17,-63.00
3219.90,-11.00
3220.64,42.00
3221.37,22.00
3222.10,43.00
3222.84,-11.00
3223.57,-43.00
3224.30,10.00
3225.03,-11.00
3225.76,-21.00
3226.49,0.00
3227.22,21.00
3227.95,21.00
3228.68,-11.00
3229.41,43.00
3230.14,84.00
3230.87,74.00
3231.59,85.00
3232.32,63.00
3233.04,32.00
3233.77,-21.00
3234.49,-22.00
3235.22,0.00
3235.94,-42.00
3236.66,-21.00
3237.39,53.00
3238.11,53.00
3238.83,-10.00
3239.55,42.00
3240.27,0.00
3240.99,-64.00
3241.71,-43.00
3242.43,-21.00
3243.15,-43.00
3243.87,-32.00
3244.58,0.00
3245.30,-10.00
3246.02,-53.00
3246.73,11.00
3247.45,32.00
3248.16,63.00
3248.88,53.00
3249.59,21.00
3250.30,21.00
3251.01,0.00
3251.73,0.00
3252.44,53.00
3253.15,-21.00
3253.86,-64.00
3254.57,42.00
3255.28,-22.00
3255.99,-21.00
3256.70,43.00
3257.41,31.00
3258.11,22.00
3258.82,-10.00
3259.53,-31.00
3260.23,-63.00
3260.94,-11.00
3261.64,0.00
3262.35,0.00
3263.05,-21.00
3263.76,-32.00
3264.46,-21.00
3265.16,-43.00
3265.86,-11.00
3266.56,32.00
3267.26,0.00
3267.97,-32.00
3268.67,-10.00
3269.36,-22.00
3270.06,0.00
3270.76,0.00
3271.46,-11.00
3272.16,0.00
3272.85,0.00
