RamanShift,Intensity
180.91,233.00
183.74,328.00
186.56,456.00
189.39,614.00
192.21,974.00
195.03,1398.00
197.84,2012.00
200.66,2785.00
203.47,3696.00
206.28,4627.00
209.09,5559.00
211.89,6354.00
214.70,7021.00
217.50,7645.00
220.30,8037.00
223.10,8249.00
225.89,8492.00
228.69,8757.00
231.48,8863.00
234.27,8969.00
237.05,8990.00
239.84,9128.00
242.62,9032.00
245.40,8673.00
248.18,8376.00
250.96,8164.00
253.73,7741.00
256.51,7275.00
259.28,6936.00
262.05,6746.00
264.81,6586.00
267.58,6438.00
270.34,6226.00
273.10,5951.00
275.86,5887.00
278.61,5824.00
281.37,5697.00
284.12,5729.00
286.87,5655.00
289.62,5708.00
292.36,5676.00
295.11,5581.00
297.85,5538.00
300.59,5538.00
303.33,5654.00
306.06,5665.00
308.80,5665.00
311.53,5708.00
314.26,5623.00
316.99,5549.00
319.71,5549.00
322.44,5559.00
325.16,5549.00
327.88,5591.00
330.59,5538.00
333.31,5443.00
336.02,5358.00
338.73,5369.00
341.44,5485.00
344.15,5400.00
346.86,5358.00
349.56,5390.00
352.26,5506.00
354.96,5517.00
357.66,5390.00
360.35,5453.00
363.05,5485.00
365.74,5464.00
368.43,5591.00
371.12,5665.00
373.80,5591.00
376.48,5623.00
379.17,5676.00
381.85,5633.00
384.52,5719.00
387.20,5813.00
389.87,5750.00
392.54,5549.00
395.21,5570.00
397.88,5697.00
400.55,5581.00
403.21,5570.00
405.87,5581.00
408.53,5718.00
411.19,5729.00
413.84,5591.00
416.50,5644.00
419.15,5549.00
421.80,5453.00
424.45,5538.00
427.10,5591.00
429.74,5549.00
432.38,5591.00
435.02,5528.00
437.66,5528.00
440.30,5528.00
442.93,5538.00
445.56,5517.00
448.19,5549.00
450.82,5612.00
453.45,5570.00
456.07,5559.00
458.70,5591.00
461.32,5496.00
463.94,5507.00
466.55,5581.00
469.17,5633.00
471.78,5581.00
474.39,5613.00
477.00,5528.00
479.61,5581.00
482.22,5602.00
484.82,5507.00
487.42,5623.00
490.02,5538.00
492.62,5517.00
495.21,5475.00
497.81,5411.00
500.40,5390.00
502.99,5421.00
505.58,5496.00
508.17,5400.00
510.75,5474.00
513.33,5581.00
515.91,5464.00
518.49,5475.00
521.07,5580.00
523.65,5581.00
526.22,5549.00
528.79,5517.00
531.36,5517.00
533.93,5612.00
536.49,5602.00
539.06,5528.00
541.62,5496.00
544.18,5316.00
546.74,5432.00
549.30,5570.00
551.85,5454.00
554.40,5411.00
556.95,5401.00
559.50,5400.00
562.05,5485.00
564.59,5485.00
567.14,5358.00
569.68,5305.00
572.22,5411.00
574.76,5390.00
577.29,5326.00
579.83,5210.00
582.36,5199.00
584.89,5221.00
587.42,5273.00
589.95,5305.00
592.47,5315.00
594.99,5157.00
597.52,4977.00
600.04,5073.00
602.55,5220.00
605.07,5167.00
607.58,5136.00
610.09,5220.00
612.60,5209.00
615.11,5220.00
617.62,5189.00
620.12,5189.00
622.63,5126.00
625.13,4987.00
627.63,4924.00
630.13,5051.00
632.62,5062.00
635.12,4935.00
637.61,4934.00
640.10,4999.00
642.59,5019.00
645.07,4902.00
647.56,4924.00
650.04,4998.00
652.52,4955.00
655.00,4892.00
657.48,4924.00
659.96,4913.00
662.43,4765.00
664.90,4776.00
667.37,4871.00
669.84,4860.00
672.31,4861.00
674.78,4839.00
677.24,4776.00
679.70,4861.00
682.16,4808.00
684.62,4818.00
687.08,4924.00
689.53,4860.00
691.98,4850.00
694.43,4882.00
696.88,4786.00
699.33,4755.00
701.78,4871.00
704.22,4903.00
706.66,4733.00
709.10,4606.00
711.54,4574.00
713.98,4691.00
716.42,4765.00
718.85,4881.00
721.28,5029.00
723.71,5167.00
726.14,5263.00
728.57,5337.00
730.99,5379.00
733.41,5348.00
735.83,5242.00
738.25,5104.00
740.67,4967.00
743.09,4871.00
745.50,4691.00
747.91,4585.00
750.33,4575.00
752.73,4458.00
755.14,4342.00
757.55,4320.00
759.95,4310.00
762.35,4300.00
764.75,4278.00
767.15,4416.00
769.55,4458.00
771.95,4352.00
774.34,4267.00
776.73,4320.00
779.12,4320.00
781.51,4374.00
783.90,4394.00
786.28,4300.00
788.67,4246.00
791.05,4225.00
793.43,4247.00
795.80,4310.00
798.18,4309.00
800.56,4300.00
802.93,4288.00
805.30,4268.00
807.67,4257.00
810.04,4204.00
812.40,4194.00
814.77,4236.00
817.13,4235.00
819.49,4162.00
821.85,4151.00
824.21,4130.00
826.57,4151.00
828.92,4098.00
831.27,4024.00
833.63,4035.00
835.98,4035.00
838.32,4013.00
840.67,3960.00
843.01,3929.00
845.36,3992.00
847.70,3961.00
850.04,4002.00
852.37,3992.00
854.71,3939.00
857.05,3897.00
859.38,3886.00
861.71,3907.00
864.04,3875.00
866.37,3865.00
868.69,3865.00
871.02,3791.00
873.34,3822.00
875.66,3970.00
877.98,4002.00
880.30,3939.00
882.62,3812.00
884.93,3790.00
887.24,3780.00
889.55,3812.00
891.86,3781.00
894.17,3706.00
896.48,3642.00
898.78,3685.00
901.09,3801.00
903.39,3802.00
905.69,3695.00
907.99,3716.00
910.28,3728.00
912.58,3696.00
914.87,3675.00
917.16,3600.00
919.45,3600.00
921.74,3738.00
924.03,3738.00
926.31,3717.00
928.60,3663.00
930.88,3717.00
933.16,3717.00
935.44,3696.00
937.72,3642.00
939.99,3632.00
942.26,3600.00
944.54,3632.00
946.81,3674.00
949.08,3675.00
951.34,3653.00
953.61,3643.00
955.87,3707.00
958.14,3759.00
960.40,3706.00
962.66,3653.00
964.92,3685.00
967.17,3653.00
969.43,3611.00
971.68,3600.00
973.93,3526.00
976.18,3409.00
978.43,3431.00
980.68,3378.00
982.92,3315.00
985.17,3356.00
987.41,3378.00
989.65,3335.00
991.89,3304.00
994.12,3304.00
996.36,3315.00
998.59,3400.00
1000.83,3410.00
1003.06,3357.00
1005.29,3293.00
1007.51,3356.00
1009.74,3325.00
1011.97,3262.00
1014.19,3367.00
1016.41,3367.00
1018.63,3294.00
1020.85,3314.00
1023.07,3251.00
1025.28,3314.00
1027.49,3463.00
1029.71,3409.00
1031.92,3315.00
1034.13,3304.00
1036.33,3346.00
1038.54,3314.00
1040.74,3240.00
1042.95,3293.00
1045.15,3293.00
1047.35,3176.00
1049.55,3103.00
1051.74,3145.00
1053.94,3261.00
1056.13,3262.00
1058.32,3209.00
1060.51,3229.00
1062.70,3134.00
1064.89,3060.00
1067.08,3103.00
1069.26,3187.00
1071.44,3230.00
1073.63,3187.00
1075.81,3113.00
1077.98,3081.00
1080.16,3082.00
1082.34,3061.00
1084.51,3039.00
1086.68,3039.00
1088.85,3102.00
1091.02,3134.00
1093.19,3082.00
1095.35,2997.00
1097.52,2986.00
1099.68,3018.00
1101.84,3018.00
1104.00,3061.00
1106.16,3039.00
1108.32,2965.00
1110.48,3050.00
1112.63,3039.00
1114.78,2997.00
1116.93,2976.00
1119.08,2986.00
1121.23,3008.00
1123.38,2933.00
1125.52,2996.00
1127.67,3007.00
1129.81,3039.00
1131.95,2954.00
1134.09,2880.00
1136.22,2849.00
1138.36,2849.00
1140.50,2890.00
1142.63,2891.00
1144.76,2912.00
1146.89,2912.00
1149.02,2891.00
1151.15,2859.00
1153.27,2849.00
1155.40,2859.00
1157.52,2785.00
1159.64,2817.00
1161.76,2870.00
1163.88,2901.00
1165.99,2923.00
1168.11,2880.00
1170.22,2796.00
1172.34,2848.00
1174.45,2827.00
1176.56,2838.00
1178.66,2806.00
1180.77,2785.00
1182.88,2796.00
1184.98,2859.00
1187.08,2806.00
1189.18,2848.00
1191.28,2817.00
1193.38,2848.00
1195.47,2785.00
1197.57,2679.00
1199.66,2647.00
1201.75,2763.00
1203.85,2775.00
1205.93,2764.00
1208.02,2785.00
1210.11,2806.00
1212.19,2785.00
1214.28,2827.00
1216.36,2785.00
1218.44,2732.00
1220.52,2753.00
1222.59,2764.00
1224.67,2795.00
1226.74,2764.00
1228.82,2785.00
1230.89,2817.00
1232.96,2775.00
1235.03,2658.00
1237.10,2753.00
1239.16,2753.00
1241.23,2732.00
1243.29,2838.00
1245.35,2764.00
1247.41,2700.00
1249.47,2701.00
1251.53,2701.00
1253.58,2700.00
1255.64,2679.00
1257.69,2753.00
1259.74,2775.00
1261.79,2700.00
1263.84,2679.00
1265.89,2648.00
1267.93,2552.00
1269.98,2594.00
1272.02,2658.00
1274.06,2615.00
1276.10,2615.00
1278.14,2594.00
1280.18,2541.00
1282.22,2531.00
1284.25,2510.00
1286.28,2520.00
1288.32,2478.00
1290.35,2446.00
1292.38,2563.00
1294.40,2499.00
1296.43,2521.00
1298.46,2563.00
1300.48,2573.00
1302.50,2605.00
1304.52,2563.00
1306.54,2563.00
1308.56,2563.00
1310.58,2615.00
1312.59,2626.00
1314.60,2626.00
1316.62,2658.00
1318.63,2690.00
1320.64,2742.00
1322.65,2785.00
1324.65,2785.00
1326.66,2753.00
1328.66,2838.00
1330.66,2869.00
1332.67,2796.00
1334.67,2795.00
1336.66,2785.00
1338.66,2806.00
1340.66,2785.00
1342.65,2743.00
1344.65,2658.00
1346.64,2647.00
1348.63,2552.00
1350.62,2488.00
1352.60,2478.00
1354.59,2573.00
1356.57,2552.00
1358.56,2467.00
1360.54,2436.00
1362.52,2414.00
1364.50,2415.00
1366.48,2489.00
1368.46,2489.00
1370.43,2446.00
1372.41,2415.00
1374.38,2372.00
1376.35,2372.00
1378.32,2425.00
1380.29,2414.00
1382.25,2415.00
1384.22,2436.00
1386.18,2393.00
1388.15,2319.00
1390.11,2287.00
1392.07,2330.00
1394.03,2393.00
1395.99,2372.00
1397.94,2340.00
1399.90,2340.00
1401.85,2330.00
1403.80,2372.00
1405.76,2340.00
1407.71,2350.00
1409.65,2319.00
1411.60,2330.00
1413.55,2298.00
1415.49,2213.00
1417.44,2181.00
1419.38,2223.00
1421.32,2171.00
1423.26,2118.00
1425.19,2213.00
1427.13,2234.00
1429.07,2256.00
1431.00,2214.00
1432.93,2203.00
1434.86,2182.00
1436.79,2192.00
1438.72,2245.00
1440.65,2202.00
1442.57,2160.00
1444.50,2149.00
1446.42,2203.00
1448.34,2182.00
1450.26,2160.00
1452.18,2202.00
1454.10,2171.00
1456.02,2160.00
1457.93,2160.00
1459.85,2160.00
1461.76,2160.00
1463.67,2224.00
1465.58,2234.00
1467.49,2181.00
1469.40,2171.00
1471.31,2096.00
1473.21,2044.00
1475.11,2097.00
1477.02,2108.00
1478.92,2054.00
1480.82,2086.00
1482.72,2034.00
1484.61,2065.00
1486.51,2075.00
1488.40,2054.00
1490.30,1991.00
1492.19,2033.00
1494.08,2023.00
1495.97,2002.00
1497.86,2012.00
1499.74,2033.00
1501.63,2033.00
1503.51,1980.00
1505.40,2002.00
1507.28,1981.00
1509.16,1959.00
1511.04,1885.00
1512.92,1885.00
1514.79,1917.00
1516.67,1970.00
1518.54,2023.00
1520.42,2033.00
1522.29,1970.00
1524.16,1959.00
1526.03,1959.00
1527.89,1895.00
1529.76,1949.00
1531.63,1970.00
1533.49,1990.00
1535.35,2012.00
1537.21,1906.00
1539.07,1885.00
1540.93,1906.00
1542.79,1906.00
1544.65,1874.00
1546.50,1906.00
1548.36,1896.00
1550.21,1906.00
1552.06,1906.00
1553.91,1843.00
1555.76,1810.00
1557.61,1884.00
1559.45,1864.00
1561.30,1864.00
1563.14,1854.00
1564.98,1853.00
1566.82,1885.00
1568.67,1885.00
1570.50,1854.00
1572.34,1832.00
1574.18,1842.00
1576.01,1874.00
1577.85,1790.00
1579.68,1800.00
1581.51,1811.00
1583.34,1789.00
1585.17,1790.00
1587.00,1768.00
1588.82,1779.00
1590.65,1822.00
1592.47,1821.00
1594.30,1831.00
1596.12,1736.00
1597.94,1695.00
1599.76,1747.00
1601.57,1800.00
1603.39,1758.00
1605.21,1737.00
1607.02,1715.00
1608.83,1758.00
1610.64,1822.00
1612.45,1801.00
1614.26,1747.00
1616.07,1695.00
1617.88,1716.00
1619.68,1641.00
1621.49,1610.00
1623.29,1610.00
1625.09,1568.00
1626.89,1662.00
1628.69,1641.00
1630.49,1609.00
1632.29,1620.00
1634.08,1610.00
1635.88,1610.00
1637.67,1599.00
1639.46,1642.00
1641.25,1630.00
1643.04,1546.00
1644.83,1577.00
1646.62,1589.00
1648.41,1546.00
1650.19,1514.00
1651.97,1588.00
1653.76,1609.00
1655.54,1535.00
1657.32,1514.00
1659.10,1546.00
1660.88,1514.00
1662.65,1546.00
1664.43,1504.00
1666.20,1588.00
1667.97,1609.00
1669.75,1578.00
1671.52,1578.00
1673.29,1514.00
1675.05,1483.00
1676.82,1472.00
1678.59,1451.00
1680.35,1450.00
1682.11,1472.00
1683.88,1504.00
1685.64,1503.00
1687.40,1408.00
1689.16,1440.00
1690.91,1408.00
1692.67,1334.00
1694.42,1324.00
1696.18,1345.00
1697.93,1376.00
1699.68,1366.00
1701.43,1355.00
1703.18,1355.00
1704.93,1366.00
1706.68,1366.00
1708.42,1345.00
1710.17,1292.00
1711.91,1271.00
1713.65,1281.00
1715.39,1377.00
1717.13,1345.00
1718.87,1261.00
1720.61,1313.00
1722.35,1344.00
1724.08,1355.00
1725.81,1356.00
1727.55,1345.00
1729.28,1324.00
1731.01,1292.00
1732.74,1207.00
1734.47,1239.00
1736.19,1229.00
1737.92,1260.00
1739.64,1239.00
1741.37,1250.00
1743.09,1250.00
1744.81,1250.00
1746.53,1218.00
1748.25,1207.00
1749.97,1186.00
1751.68,1197.00
1753.40,1207.00
1755.11,1239.00
1756.83,1218.00
1758.54,1197.00
1760.25,1218.00
1761.96,1218.00
1763.67,1186.00
1765.38,1207.00
1767.08,1228.00
1768.79,1271.00
1770.49,1218.00
1772.19,1197.00
1773.90,1176.00
1775.60,1175.00
1777.30,1133.00
1778.99,1164.00
1780.69,1196.00
1782.39,1165.00
1784.08,1123.00
1785.78,1143.00
1787.47,1175.00
1789.16,1186.00
1790.85,1154.00
1792.54,1122.00
1794.23,1133.00
1795.91,1165.00
1797.60,1186.00
1799.28,1175.00
1800.97,1122.00
1802.65,1102.00
1804.33,1112.00
1806.01,1122.00
1807.69,1112.00
1809.37,1102.00
1811.05,1112.00
1812.72,1091.00
1814.40,1123.00
1816.07,1101.00
1817.74,1080.00
1819.41,1038.00
1821.08,1059.00
1822.75,1059.00
1824.42,1059.00
1826.09,1133.00
1827.75,1207.00
1829.42,1165.00
1831.08,1122.00
1832.74,1080.00
1834.40,1048.00
1836.06,1038.00
1837.72,1028.00
1839.38,1037.00
1841.04,1017.00
1842.69,1027.00
1844.35,1048.00
1846.00,1101.00
1847.65,1070.00
1849.30,1028.00
1850.95,985.00
1852.60,1006.00
1854.25,1016.00
1855.90,1016.00
1857.54,1028.00
1859.19,996.00
1860.83,1038.00
1862.47,1070.00
1864.12,1027.00
1865.76,1027.00
1867.40,1049.00
1869.03,1059.00
1870.67,1048.00
1872.31,1006.00
1873.94,1016.00
1875.57,995.00
1877.21,974.00
1878.84,1028.00
1880.47,1017.00
1882.10,985.00
1883.73,953.00
1885.35,964.00
1886.98,1038.00
1888.61,996.00
1890.23,963.00
1891.85,996.00
1893.47,974.00
1895.09,932.00
1896.71,953.00
1898.33,932.00
1899.95,942.00
1901.57,953.00
1903.18,974.00
1904.80,932.00
1906.41,964.00
1908.02,932.00
1909.63,942.00
1911.24,974.00
1912.85,1006.00
1914.46,974.00
1916.07,911.00
1917.67,932.00
1919.28,953.00
1920.88,932.00
1922.48,932.00
1924.08,974.00
1925.68,953.00
1927.28,858.00
1928.88,868.00
1930.48,890.00
1932.07,890.00
1933.67,858.00
1935.26,858.00
1936.86,805.00
1938.45,900.00
1940.04,942.00
1941.63,910.00
1943.22,879.00
1944.80,879.00
1946.39,815.00
1947.98,784.00
1949.56,805.00
1951.14,836.00
1952.73,847.00
1954.31,837.00
1955.89,868.00
1957.47,847.00
1959.05,805.00
1960.62,869.00
1962.20,837.00
1963.77,815.00
1965.35,815.00
1966.92,868.00
1968.49,868.00
1970.06,816.00
1971.63,848.00
1973.20,826.00
1974.77,890.00
1976.34,879.00
1977.90,837.00
1979.47,826.00
1981.03,773.00
1982.59,762.00
1984.15,837.00
1985.71,869.00
1987.27,869.00
1988.83,826.00
1990.39,794.00
1991.94,783.00
1993.50,773.00
1995.05,763.00
1996.61,741.00
1998.16,804.00
1999.71,837.00
2001.26,816.00
2002.81,795.00
2004.36,762.00
2005.91,721.00
2007.45,784.00
2009.00,816.00
2010.54,795.00
2012.08,784.00
2013.62,752.00
2015.17,751.00
2016.71,784.00
2018.24,773.00
2019.78,762.00
2021.32,751.00
2022.85,762.00
2024.39,762.00
2025.92,762.00
2027.46,826.00
2028.99,794.00
2030.52,752.00
2032.05,784.00
2033.58,762.00
2035.10,783.00
2036.63,731.00
2038.16,762.00
2039.68,784.00
2041.21,731.00
2042.73,710.00
2044.25,741.00
2045.77,709.00
2047.29,763.00
2048.81,805.00
2050.33,784.00
2051.84,763.00
2053.36,763.00
2054.87,773.00
2056.39,720.00
2057.90,741.00
2059.41,741.00
2060.92,752.00
2062.43,752.00
2063.94,720.00
2065.45,699.00
2066.95,698.00
2068.46,741.00
2069.96,763.00
2071.47,720.00
2072.97,709.00
2074.47,698.00
2075.97,688.00
2077.47,689.00
2078.97,689.00
2080.47,699.00
2081.96,709.00
2083.46,656.00
2084.95,614.00
2086.45,668.00
2087.94,657.00
2089.43,625.00
2090.92,593.00
2092.41,615.00
2093.90,646.00
2095.39,646.00
2096.88,614.00
2098.36,657.00
2099.85,646.00
2101.33,656.00
2102.81,646.00
2104.30,614.00
2105.78,604.00
2107.26,689.00
2108.74,689.00
2110.21,636.00
2111.69,657.00
2113.17,625.00
2114.64,604.00
2116.12,582.00
2117.59,615.00
2119.06,645.00
2120.53,646.00
2122.00,699.00
2123.47,614.00
2124.94,615.00
2126.41,614.00
2127.87,593.00
2129.34,624.00
2130.80,656.00
2132.27,593.00
2133.73,604.00
2135.19,646.00
2136.65,635.00
2138.11,614.00
2139.57,657.00
2141.03,614.00
2142.48,541.00
2143.94,541.00
2145.39,625.00
2146.85,635.00
2148.30,583.00
2149.75,603.00
2151.20,593.00
2152.65,615.00
2154.10,646.00
2155.55,615.00
2157.00,593.00
2158.44,593.00
2159.89,604.00
2161.33,614.00
2162.78,583.00
2164.22,614.00
2165.66,667.00
2167.10,635.00
2168.54,614.00
2169.98,540.00
2171.42,540.00
2172.85,593.00
2174.29,582.00
2175.72,562.00
2177.16,593.00
2178.59,593.00
2180.02,561.00
2181.45,551.00
2182.88,530.00
2184.31,582.00
2185.74,615.00
2187.17,572.00
2188.59,508.00
2190.02,519.00
2191.44,572.00
2192.87,562.00
2194.29,508.00
2195.71,487.00
2197.13,540.00
2198.55,583.00
2199.97,582.00
2201.39,571.00
2202.81,551.00
2204.22,530.00
2205.64,487.00
2207.05,508.00
2208.46,529.00
2209.88,487.00
2211.29,487.00
2212.70,509.00
2214.11,508.00
2215.52,551.00
2216.92,561.00
2218.33,529.00
2219.74,551.00
2221.14,529.00
2222.54,562.00
2223.95,551.00
2225.35,487.00
2226.75,477.00
2228.15,508.00
2229.55,487.00
2230.95,487.00
2232.35,508.00
2233.74,466.00
2235.14,413.00
2236.53,445.00
2237.93,455.00
2239.32,509.00
2240.71,530.00
2242.10,572.00
2243.49,519.00
2244.88,487.00
2246.27,487.00
2247.66,498.00
2249.04,551.00
2250.43,561.00
2251.81,529.00
2253.20,529.00
2254.58,572.00
2255.96,529.00
2257.34,498.00
2258.72,487.00
2260.10,465.00
2261.48,466.00
2262.86,476.00
2264.23,466.00
2265.61,434.00
2266.98,445.00
2268.36,477.00
2269.73,466.00
2271.10,455.00
2272.47,476.00
2273.84,477.00
2275.21,466.00
2276.58,445.00
2277.95,466.00
2279.31,477.00
2280.68,466.00
2282.05,444.00
2283.41,477.00
2284.77,466.00
2286.13,402.00
2287.50,466.00
2288.86,477.00
2290.22,477.00
2291.57,476.00
2292.93,435.00
2294.29,445.00
2295.64,423.00
2297.00,444.00
2298.35,424.00
2299.71,455.00
2301.06,445.00
2302.41,435.00
2303.76,435.00
2305.11,477.00
2306.46,487.00
2307.81,444.00
2309.15,434.00
2310.50,381.00
2311.84,403.00
2313.19,434.00
2314.53,423.00
2315.87,434.00
2317.22,413.00
2318.56,413.00
2319.90,424.00
2321.24,403.00
2322.57,402.00
2323.91,402.00
2325.25,413.00
2326.58,392.00
2327.92,402.00
2329.25,413.00
2330.58,403.00
2331.91,371.00
2333.25,382.00
2334.58,381.00
2335.90,370.00
2337.23,413.00
2338.56,402.00
2339.89,370.00
2341.21,402.00
2342.54,403.00
2343.86,392.00
2345.19,381.00
2346.51,339.00
2347.83,328.00
2349.15,339.00
2350.47,403.00
2351.79,402.00
2353.11,381.00
2354.42,371.00
2355.74,402.00
2357.06,350.00
2358.37,360.00
2359.68,360.00
2361.00,329.00
2362.31,276.00
2363.62,328.00
2364.93,392.00
2366.24,360.00
2367.55,382.00
2368.86,413.00
2370.16,434.00
2371.47,424.00
2372.77,413.00
2374.08,423.00
2375.38,413.00
2376.68,403.00
2377.98,381.00
2379.29,349.00
2380.59,370.00
2381.88,339.00
2383.18,350.00
2384.48,350.00
2385.78,360.00
2387.07,360.00
2388.37,381.00
2389.66,350.00
2390.95,328.00
2392.25,381.00
2393.54,350.00
2394.83,350.00
2396.12,339.00
2397.41,339.00
2398.70,339.00
2399.98,360.00
2401.27,371.00
2402.55,339.00
2403.84,297.00
2405.12,307.00
2406.41,286.00
2407.69,307.00
2408.97,339.00
2410.25,318.00
2411.53,339.00
2412.81,360.00
2414.09,318.00
2415.36,286.00
2416.64,317.00
2417.91,339.00
2419.19,360.00
2420.46,307.00
2421.74,339.00
2423.01,339.00
2424.28,360.00
2425.55,371.00
2426.82,371.00
2428.09,360.00
2429.36,381.00
2430.62,360.00
2431.89,360.00
2433.15,339.00
2434.42,339.00
2435.68,339.00
2436.94,339.00
2438.21,296.00
2439.47,318.00
2440.73,317.00
2441.99,296.00
2443.25,307.00
2444.51,286.00
2445.76,350.00
2447.02,339.00
2448.27,286.00
2449.53,328.00
2450.78,339.00
2452.03,329.00
2453.29,297.00
2454.54,264.00
2455.79,212.00
2457.04,264.00
2458.29,296.00
2459.54,307.00
2460.78,307.00
2462.03,276.00
2463.27,317.00
2464.52,349.00
2465.76,349.00
2467.01,339.00
2468.25,296.00
2469.49,317.00
2470.73,286.00
2471.97,329.00
2473.21,329.00
2474.45,307.00
2475.69,296.00
2476.92,286.00
2478.16,296.00
2479.39,254.00
2480.63,285.00
2481.86,285.00
2483.09,255.00
2484.32,233.00
2485.56,276.00
2486.79,318.00
2488.02,297.00
2489.24,254.00
2490.47,264.00
2491.70,264.00
2492.92,254.00
2494.15,254.00
2495.37,317.00
2496.60,317.00
2497.82,244.00
2499.04,254.00
2500.26,286.00
2501.48,254.00
2502.70,212.00
2503.92,233.00
2505.14,254.00
2506.36,243.00
2507.58,264.00
2508.79,244.00
2510.01,222.00
2511.22,275.00
2512.43,201.00
2513.64,212.00
2514.86,285.00
2516.07,286.00
2517.28,275.00
2518.49,297.00
2519.70,286.00
2520.90,254.00
2522.11,233.00
2523.32,212.00
2524.52,254.00
2525.73,275.00
2526.93,223.00
2528.13,276.00
2529.33,338.00
2530.54,297.00
2531.74,255.00
2532.94,233.00
2534.14,254.00
2535.33,307.00
2536.53,254.00
2537.73,212.00
2538.92,254.00
2540.12,297.00
2541.31,286.00
2542.51,233.00
2543.70,254.00
2544.89,243.00
2546.08,254.00
2547.27,255.00
2548.46,244.00
2549.65,254.00
2550.84,265.00
2552.03,212.00
2553.21,212.00
2554.40,233.00
2555.58,212.00
2556.77,244.00
2557.95,254.00
2559.13,286.00
2560.31,254.00
2561.50,233.00
2562.68,233.00
2563.85,254.00
2565.03,233.00
2566.21,212.00
2567.39,243.00
2568.56,244.00
2569.74,212.00
2570.91,222.00
2572.09,233.00
2573.26,233.00
2574.43,255.00
2575.61,254.00
2576.78,244.00
2577.95,243.00
2579.12,212.00
2580.29,233.00
2581.45,223.00
2582.62,212.00
2583.79,212.00
2584.95,211.00
2586.12,244.00
2587.28,233.00
2588.44,222.00
2589.61,254.00
2590.77,254.00
2591.93,201.00
2593.09,191.00
2594.25,255.00
2595.41,244.00
2596.56,275.00
2597.72,244.00
2598.88,201.00
2600.03,148.00
2601.19,180.00
2602.34,201.00
2603.50,170.00
2604.65,190.00
2605.80,233.00
2606.95,233.00
2608.10,244.00
2609.25,255.00
2610.40,170.00
2611.55,169.00
2612.70,212.00
2613.84,244.00
2614.99,233.00
2616.13,212.00
2617.28,191.00
2618.42,212.00
2619.56,202.00
2620.71,201.00
2621.85,212.00
2622.99,223.00
2624.13,212.00
2625.27,159.00
2626.40,222.00
2627.54,233.00
2628.68,191.00
2629.81,180.00
2630.95,170.00
2632.08,169.00
2633.22,180.00
2634.35,138.00
2635.48,138.00
2636.61,191.00
2637.74,212.00
2638.87,201.00
2640.00,148.00
2641.13,148.00
2642.26,170.00
2643.39,190.00
2644.51,191.00
2645.64,243.00
2646.76,223.00
2647.89,191.00
2649.01,212.00
2650.13,159.00
2651.25,127.00
2652.38,169.00
2653.50,212.00
2654.62,191.00
2655.73,159.00
2656.85,169.00
2657.97,170.00
2659.09,201.00
2660.20,212.00
2661.32,233.00
2662.43,254.00
2663.55,212.00
2664.66,159.00
2665.77,149.00
2666.88,180.00
2667.99,222.00
2669.10,201.00
2670.21,191.00
2671.32,180.00
2672.43,159.00
2673.54,128.00
2674.64,222.00
2675.75,254.00
2676.85,190.00
2677.96,95.00
2679.06,106.00
2680.16,95.00
2681.26,85.00
2682.37,138.00
2683.47,106.00
2684.57,127.00
2685.66,170.00
2686.76,159.00
2687.86,158.00
2688.96,201.00
2690.05,159.00
2691.15,127.00
2692.24,159.00
2693.34,170.00
2694.43,201.00
2695.52,180.00
2696.62,127.00
2697.71,148.00
2698.80,170.00
2699.89,159.00
2700.98,116.00
2702.06,159.00
2703.15,190.00
2704.24,127.00
2705.32,117.00
2706.41,127.00
2707.49,148.00
2708.58,148.00
2709.66,149.00
2710.74,148.00
2711.83,137.00
2712.91,169.00
2713.99,159.00
2715.07,116.00
2716.15,127.00
2717.22,138.00
2718.30,190.00
2719.38,191.00
2720.45,170.00
2721.53,106.00
2722.60,138.00
2723.68,127.00
2724.75,137.00
2725.82,138.00
2726.89,117.00
2727.97,148.00
2729.04,128.00
2730.11,149.00
2731.17,159.00
2732.24,127.00
2733.31,149.00
2734.38,127.00
2735.44,148.00
2736.51,116.00
2737.57,64.00
2738.64,138.00
2739.70,117.00
2740.76,127.00
2741.82,127.00
2742.89,159.00
2743.95,106.00
2745.01,148.00
2746.07,137.00
2747.12,116.00
2748.18,117.00
2749.24,127.00
2750.29,116.00
2751.35,116.00
2752.40,127.00
2753.46,117.00
2754.51,85.00
2755.57,116.00
2756.62,148.00
2757.67,127.00
2758.72,127.00
2759.77,127.00
2760.82,96.00
2761.87,117.00
2762.91,127.00
2763.96,106.00
2765.01,127.00
2766.05,106.00
2767.10,128.00
2768.14,127.00
2769.19,106.00
2770.23,95.00
2771.27,85.00
2772.31,127.00
2773.35,116.00
2774.40,64.00
2775.43,75.00
2776.47,127.00
2777.51,170.00
2778.55,159.00
2779.59,127.00
2780.62,106.00
2781.66,74.00
2782.69,106.00
2783.73,138.00
2784.76,106.00
2785.79,75.00
2786.82,95.00
2787.85,106.00
2788.89,85.00
2789.92,96.00
2790.94,95.00
2791.97,85.00
2793.00,106.00
2794.03,85.00
2795.05,169.00
2796.08,159.00
2797.11,106.00
2798.13,85.00
2799.15,149.00
2800.18,138.00
2801.20,64.00
2802.22,63.00
2803.24,105.00
2804.26,138.00
2805.28,116.00
2806.30,138.00
2807.32,84.00
2808.34,127.00
2809.35,117.00
2810.37,63.00
2811.39,64.00
2812.40,96.00
2813.41,64.00
2814.43,74.00
2815.44,116.00
2816.45,106.00
2817.46,84.00
2818.48,64.00
2819.49,63.00
2820.49,85.00
2821.50,106.00
2822.51,95.00
2823.52,74.00
2824.53,85.00
2825.53,85.00
2826.54,95.00
2827.54,63.00
2828.55,96.00
2829.55,149.00
2830.55,127.00
2831.55,127.00
2832.56,127.00
2833.56,117.00
2834.56,170.00
2835.56,149.00
2836.56,84.00
2837.55,85.00
2838.55,116.00
2839.55,138.00
2840.54,127.00
2841.54,127.00
2842.53,127.00
2843.53,159.00
2844.52,138.00
2845.51,106.00
2846.51,117.00
2847.50,106.00
2848.49,43.00
2849.48,53.00
2850.47,84.00
2851.46,95.00
2852.45,106.00
2853.43,53.00
2854.42,85.00
2855.41,127.00
2856.39,127.00
2857.38,106.00
2858.36,85.00
2859.34,127.00
2860.33,106.00
2861.31,116.00
2862.29,127.00
2863.27,74.00
2864.25,85.00
2865.23,106.00
2866.21,85.00
2867.19,64.00
2868.17,52.00
2869.14,42.00
2870.12,106.00
2871.09,96.00
2872.07,105.00
2873.04,127.00
2874.02,137.00
2874.99,159.00
2875.96,106.00
2876.93,106.00
2877.91,85.00
2878.88,95.00
2879.85,127.00
2880.82,106.00
2881.78,106.00
2882.75,95.00
2883.72,75.00
2884.69,96.00
2885.65,64.00
2886.62,32.00
2887.58,84.00
2888.55,96.00
2889.51,84.00
2890.47,85.00
2891.43,95.00
2892.39,148.00
2893.36,117.00
2894.31,106.00
2895.27,148.00
2896.23,148.00
2897.19,106.00
2898.15,95.00
2899.11,106.00
2900.06,74.00
2901.02,63.00
2901.97,21.00
2902.93,74.00
2903.88,116.00
2904.83,85.00
2905.79,63.00
2906.74,74.00
2907.69,116.00
2908.64,127.00
2909.59,64.00
2910.54,63.00
2911.49,84.00
2912.43,75.00
2913.38,42.00
2914.33,95.00
2915.27,43.00
2916.22,74.00
2917.16,96.00
2918.11,95.00
2919.05,106.00
2919.99,74.00
2920.94,117.00
2921.88,127.00
2922.82,74.00
2923.76,106.00
2924.70,63.00
2925.64,53.00
2926.58,105.00
2927.51,84.00
2928.45,95.00
2929.39,159.00
2930.32,117.00
2931.26,85.00
2932.19,74.00
2933.13,95.00
2934.06,84.00
2934.99,74.00
2935.92,74.00
2936.86,106.00
2937.79,85.00
2938.72,127.00
2939.65,106.00
2940.57,64.00
2941.50,95.00
2942.43,106.00
2943.36,84.00
2944.28,74.00
2945.21,64.00
2946.13,63.00
2947.06,84.00
2947.98,117.00
2948.91,74.00
2949.83,74.00
2950.75,21.00
2951.67,53.00
2952.59,106.00
2953.51,127.00
2954.43,74.00
2955.35,31.00
2956.27,32.00
2957.19,64.00
2958.10,138.00
2959.02,96.00
2959.94,106.00
2960.85,117.00
2961.77,85.00
2962.68,42.00
2963.59,84.00
2964.51,53.00
2965.42,11.00
2966.33,64.00
2967.24,64.00
2968.15,52.00
2969.06,64.00
2969.97,74.00
2970.88,10.00
2971.78,10.00
2972.69,63.00
2973.60,127.00
2974.50,117.00
2975.41,53.00
2976.31,32.00
2977.22,105.00
2978.12,116.00
2979.02,53.00
2979.93,32.00
2980.83,42.00
2981.73,96.00
2982.63,106.00
2983.53,84.00
2984.43,42.00
2985.33,43.00
2986.22,52.00
2987.12,42.00
2988.02,31.00
2988.91,32.00
2989.81,53.00
2990.70,32.00
2991.60,32.00
2992.49,42.00
2993.38,32.00
2994.28,42.00
2995.17,117.00
2996.06,95.00
2996.95,85.00
2997.84,21.00
2998.73,10.00
2999.62,53.00
3000.51,64.00
3001.40,63.00
3002.28,75.00
3003.17,75.00
3004.05,43.00
3004.94,42.00
3005.82,42.00
3006.71,63.00
3007.59,64.00
3008.47,74.00
3009.36,64.00
3010.24,21.00
3011.12,21.00
3012.00,21.00
3012.88,84.00
3013.76,64.00
3014.64,43.00
3015.51,53.00
3016.39,74.00
3017.27,53.00
3018.14,21.00
3019.02,32.00
3019.89,64.00
3020.77,43.00
3021.64,10.00
3022.52,21.00
3023.39,53.00
3024.26,42.00
3025.13,0.00
3026.00,0.00
3026.87,63.00
3027.74,11.00
3028.61,10.00
3029.48,31.00
3030.35,85.00
3031.21,63.00
3032.08,52.00
3032.95,84.00
3033.81,106.00
3034.68,84.00
3035.54,85.00
3036.40,52.00
3037.27,63.00
3038.13,21.00
3038.99,31.00
3039.85,117.00
3040.71,42.00
3041.57,-10.00
3042.43,0.00
3043.29,42.00
3044.15,32.00
3045.01,22.00
3045.86,21.00
3046.72,43.00
3047.58,74.00
3048.43,96.00
3049.29,63.00
3050.14,95.00
3050.99,75.00
3051.85,85.00
3052.70,53.00
3053.55,0.00
3054.40,42.00
3055.25,96.00
3056.10,85.00
3056.95,32.00
3057.80,43.00
3058.65,32.00
3059.50,43.00
3060.34,74.00
3061.19,21.00
3062.04,53.00
3062.88,64.00
3063.73,85.00
3064.57,64.00
3065.42,32.00
3066.26,63.00
3067.10,75.00
3067.94,64.00
3068.78,85.00
3069.63,74.00
3070.47,42.00
3071.31,31.00
3072.14,84.00
3072.98,31.00
3073.82,21.00
3074.66,22.00
3075.49,32.00
3076.33,21.00
3077.17,43.00
3078.00,43.00
3078.83,43.00
3079.67,0.00
3080.50,11.00
3081.33,43.00
3082.17,63.00
3083.00,84.00
3083.83,21.00
3084.66,11.00
3085.49,43.00
3086.32,42.00
3087.15,31.00
3087.97,53.00
3088.80,74.00
3089.63,32.00
3090.46,21.00
3091.28,43.00
3092.11,42.00
3092.93,21.00
3093.75,31.00
3094.58,21.00
3095.40,42.00
3096.22,22.00
3097.05,21.00
3097.87,21.00
3098.69,42.00
3099.51,84.00
3100.33,84.00
3101.15,74.00
3101.96,10.00
3102.78,32.00
3103.60,32.00
3104.42,53.00
3105.23,74.00
3106.05,32.00
3106.86,32.00
3107.68,53.00
3108.49,74.00
3109.30,64.00
3110.12,42.00
3110.93,64.00
3111.74,74.00
3112.55,117.00
3113.36,85.00
3114.17,63.00
3114.98,21.00
3115.79,0.00
3116.60,0.00
3117.40,22.00
3118.21,53.00
3119.02,10.00
3119.82,10.00
3120.63,22.00
3121.43,53.00
3122.24,10.00
3123.04,0.00
3123.84,74.00
3124.65,63.00
3125.45,42.00
3126.25,21.00
3127.05,-21.00
3127.85,-21.00
3128.65,53.00
3129.45,32.00
3130.25,22.00
3131.05,96.00
3131.84,53.00
3132.64,32.00
3133.44,21.00
3134.23,-42.00
3135.03,10.00
3135.82,0.00
3136.62,31.00
3137.41,106.00
3138.20,63.00
3139.00,0.00
3139.79,-10.00
3140.58,0.00
3141.37,21.00
3142.16,42.00
3142.95,32.00
3143.74,0.00
3144.53,21.00
3145.32,31.00
3146.10,11.00
3146.89,31.00
3147.68,53.00
3148.46,-11.00
3149.25,32.00
3150.03,43.00
3150.82,42.00
3151.60,11.00
3152.38,-21.00
3153.17,10.00
3153.95,43.00
3154.73,42.00
3155.51,64.00
3156.29,10.00
3157.07,10.00
3157.85,21.00
3158.63,64.00
3159.41,42.00
3160.18,32.00
3160.96,64.00
3161.74,53.00
3162.51,42.00
3163.29,31.00
3164.06,0.00
3164.84,0.00
3165.61,10.00
3166.38,42.00
3167.16,10.00
3167.93,-10.00
3168.70,21.00
3169.47,0.00
3170.24,0.00
3171.01,0.00
3171.78,42.00
3172.55,42.00
3173.32,63.00
3174.09,74.00
3174.85,96.00
3175.62,0.00
3176.39,10.00
3177.15,10.00
3177.92,21.00
3178.68,42.00
3179.45,0.00
3180.21,22.00
3180.97,22.00
3181.73,53.00
3182.50,32.00
3183.26,42.00
3184.02,53.00
3184.78,43.00
3185.54,53.00
3186.30,42.00
3187.05,85.00
3187.81,43.00
3188.57,0.00
3189.33,-53.00
3190.08,-11.00
3190.84,63.00
3191.59,64.00
3192.35,53.00
3193.10,53.00
3193.86,63.00
3194.61,64.00
3195.36,53.00
3196.12,53.00
3196.87,0.00
3197.62,0.00
3198.37,0.00
3199.12,-21.00
3199.87,-21.00
3200.62,11.00
3201.36,-10.00
3202.11,0.00
3202.86,21.00
3203.61,32.00
3204.35,53.00
3205.10,85.00
3205.84,74.00
3206.59,43.00
3207.33,85.00
3208.08,32.00
3208.82,21.00
3209.56,21.00
3210.30,-11.00
3211.05,-21.00
3211.79,-32.00
3212.53,11.00
3213.27,-21.00
3214.01,-42.00
3214.75,-21.00
3215.48,10.00
3216.22,32.00
3216.96,53.00
3217.69,63.00
3218.43,21.00
3219.17,0.00
3219.90,0.00
3220.64,53.00
3221.37,32.00
3222.10,-11.00
3222.84,75.00
3223.57,64.00
3224.30,32.00
3225.03,32.00
3225.76,-21.00
3226.49,11.00
3227.22,11.00
3227.95,32.00
3228.68,32.00
3229.41,0.00
3230.14,-31.00
3230.87,-22.00
3231.59,-32.00
3232.32,43.00
3233.04,42.00
3233.77,-11.00
3234.49,21.00
3235.22,0.00
3235.94,-21.00
3236.66,21.00
3237.39,53.00
3238.11,31.00
3238.83,31.00
3239.55,21.00
3240.27,11.00
3240.99,-21.00
3241.71,-11.00
3242.43,-10.00
3243.15,31.00
3243.87,42.00
3244.58,0.00
3245.30,0.00
3246.02,21.00
3246.73,-21.00
3247.45,-42.00
3248.16,-63.00
3248.88,0.00
3249.59,-10.00
3250.30,0.00
3251.01,31.00
3251.73,32.00
3252.44,32.00
3253.15,31.00
3253.86,42.00
3254.57,32.00
3255.28,10.00
3255.99,0.00
3256.70,21.00
3257.41,64.00
3258.11,31.00
3258.82,-21.00
3259.53,0.00
3260.23,53.00
3260.94,96.00
3261.64,117.00
3262.35,53.00
3263.05,64.00
3263.76,0.00
3264.46,32.00
3265.16,42.00
3265.86,63.00
3266.56,74.00
3267.26,31.00
3267.97,75.00
3268.67,0.00
3269.36,-10.00
3270.06,53.00
3270.76,63.00
3271.46,22.00
3272.16,11.00
3272.85,0.00
