RamanShift,Intensity
180.91,238.00
183.74,296.00
186.56,392.00
189.39,455.00
192.21,699.00
195.03,974.00
197.84,1345.00
200.66,1853.00
203.47,2330.00
206.28,2849.00
209.09,3325.00
211.89,3781.00
214.70,4173.00
217.50,4384.00
220.30,4501.00
223.10,4670.00
225.89,4797.00
228.69,4872.00
231.48,4914.00
234.27,4913.00
237.05,5030.00
239.84,4935.00
242.62,4871.00
245.40,4797.00
248.18,4871.00
250.96,4903.00
253.73,4775.00
256.51,4681.00
259.28,4712.00
262.05,4659.00
264.81,4606.00
267.58,4469.00
270.34,4415.00
273.10,4479.00
275.86,4511.00
278.61,4522.00
281.37,4479.00
284.12,4511.00
286.87,4501.00
289.62,4458.00
292.36,4416.00
295.11,4363.00
297.85,4458.00
300.59,4554.00
303.33,4521.00
306.06,4501.00
308.80,4447.00
311.53,4469.00
314.26,4490.00
316.99,4479.00
319.71,4564.00
322.44,4532.00
325.16,4553.00
327.88,4532.00
330.59,4469.00
333.31,4405.00
336.02,4320.00
338.73,4352.00
341.44,4416.00
344.15,4405.00
346.86,4405.00
349.56,4480.00
352.26,4459.00
354.96,4448.00
357.66,4511.00
360.35,4511.00
363.05,4468.00
365.74,4489.00
368.43,4554.00
371.12,4617.00
373.80,4649.00
376.48,4595.00
379.17,4522.00
381.85,4553.00
384.52,4691.00
387.20,4755.00
389.87,4754.00
392.54,4681.00
395.21,4606.00
397.88,4670.00
400.55,4670.00
403.21,4606.00
405.87,4585.00
408.53,4606.00
411.19,4691.00
413.84,4660.00
416.50,4607.00
419.15,4627.00
421.80,4585.00
424.45,4500.00
427.10,4458.00
429.74,4469.00
432.38,4500.00
435.02,4490.00
437.66,4511.00
440.30,4468.00
442.93,4468.00
445.56,4617.00
448.19,4670.00
450.82,4659.00
453.45,4670.00
456.07,4595.00
458.70,4638.00
461.32,4712.00
463.94,4702.00
466.55,4638.00
469.17,4723.00
471.78,4787.00
474.39,4808.00
477.00,4755.00
479.61,4691.00
482.22,4627.00
484.82,4648.00
487.42,4670.00
490.02,4521.00
492.62,4521.00
495.21,4553.00
497.81,4543.00
500.40,4521.00
502.99,4480.00
505.58,4480.00
508.17,4447.00
510.75,4511.00
513.33,4501.00
515.91,4415.00
518.49,4426.00
521.07,4458.00
523.65,4543.00
526.22,4501.00
528.79,4501.00
531.36,4585.00
533.93,4575.00
536.49,4501.00
539.06,4479.00
541.62,4553.00
544.18,4628.00
546.74,4564.00
549.30,4427.00
551.85,4426.00
554.40,4405.00
556.95,4373.00
559.50,4479.00
562.05,4543.00
564.59,4458.00
567.14,4426.00
569.68,4415.00
572.22,4458.00
574.76,4437.00
577.29,4416.00
579.83,4405.00
582.36,4352.00
584.89,4363.00
587.42,4310.00
589.95,4256.00
592.47,4247.00
594.99,4267.00
597.52,4172.00
600.04,4119.00
602.55,4235.00
605.07,4310.00
607.58,4299.00
610.09,4214.00
612.60,4162.00
615.11,4098.00
617.62,4077.00
620.12,4108.00
622.63,4140.00
625.13,4140.00
627.63,4119.00
630.13,4035.00
632.62,4140.00
635.12,4172.00
637.61,4140.00
640.10,4098.00
642.59,4129.00
645.07,4140.00
647.56,4088.00
650.04,4109.00
652.52,4023.00
655.00,4098.00
657.48,4077.00
659.96,3981.00
662.43,4035.00
664.90,3981.00
667.37,4035.00
669.84,4045.00
672.31,4013.00
674.78,3982.00
677.24,4013.00
679.70,3971.00
682.16,3992.00
684.62,4003.00
687.08,3950.00
689.53,4002.00
691.98,4045.00
694.43,3960.00
696.88,3939.00
699.33,3897.00
701.78,3854.00
704.22,3950.00
706.66,3907.00
709.10,3917.00
711.54,3876.00
713.98,3823.00
716.42,3886.00
718.85,3949.00
721.28,3949.00
723.71,3992.00
726.14,4056.00
728.57,4087.00
730.99,4098.00
733.41,4013.00
735.83,3950.00
738.25,3886.00
740.67,3908.00
743.09,3833.00
745.50,3886.00
747.91,3855.00
750.33,3675.00
752.73,3632.00
755.14,3717.00
757.55,3653.00
759.95,3600.00
762.35,3632.00
764.75,3633.00
767.15,3621.00
769.55,3633.00
771.95,3653.00
774.34,3547.00
776.73,3558.00
779.12,3527.00
781.51,3590.00
783.90,3632.00
786.28,3579.00
788.67,3579.00
791.05,3548.00
793.43,3547.00
795.80,3495.00
798.18,3452.00
800.56,3494.00
802.93,3600.00
805.30,3495.00
807.67,3410.00
810.04,3473.00
812.40,3548.00
814.77,3473.00
817.13,3410.00
819.49,3399.00
821.85,3463.00
824.21,3441.00
826.57,3399.00
828.92,3515.00
831.27,3452.00
833.63,3357.00
835.98,3378.00
838.32,3378.00
840.67,3399.00
843.01,3304.00
845.36,3251.00
847.70,3325.00
850.04,3336.00
852.37,3230.00
854.71,3283.00
857.05,3303.00
859.38,3230.00
861.71,3219.00
864.04,3177.00
866.37,3209.00
868.69,3251.00
871.02,3209.00
873.34,3208.00
875.66,3282.00
877.98,3293.00
880.30,3230.00
882.62,3198.00
884.93,3155.00
887.24,3092.00
889.55,3071.00
891.86,3060.00
894.17,3135.00
896.48,3123.00
898.78,3188.00
901.09,3123.00
903.39,3061.00
905.69,3060.00
907.99,3114.00
910.28,3134.00
912.58,3166.00
914.87,3050.00
917.16,3049.00
919.45,3071.00
921.74,3092.00
924.03,3060.00
926.31,2996.00
928.60,3007.00
930.88,3060.00
933.16,2933.00
935.44,2891.00
937.72,2976.00
939.99,2975.00
942.26,2987.00
944.54,2997.00
946.81,3018.00
949.08,2997.00
951.34,2965.00
953.61,3018.00
955.87,2976.00
958.14,2955.00
960.40,2997.00
962.66,2944.00
964.92,2912.00
967.17,2891.00
969.43,2869.00
971.68,2902.00
973.93,2817.00
976.18,2827.00
978.43,2849.00
980.68,2828.00
982.92,2837.00
985.17,2827.00
987.41,2827.00
989.65,2785.00
991.89,2711.00
994.12,2732.00
996.36,2774.00
998.59,2806.00
1000.83,2785.00
1003.06,2796.00
1005.29,2817.00
1007.51,2732.00
1009.74,2637.00
1011.97,2700.00
1014.19,2732.00
1016.41,2775.00
1018.63,2775.00
1020.85,2774.00
1023.07,2796.00
1025.28,2775.00
1027.49,2721.00
1029.71,2658.00
1031.92,2732.00
1034.13,2722.00
1036.33,2711.00
1038.54,2753.00
1040.74,2732.00
1042.95,2637.00
1045.15,2605.00
1047.35,2637.00
1049.55,2700.00
1051.74,2721.00
1053.94,2669.00
1056.13,2732.00
1058.32,2595.00
1060.51,2616.00
1062.70,2583.00
1064.89,2626.00
1067.08,2616.00
1069.26,2573.00
1071.44,2626.00
1073.63,2637.00
1075.81,2595.00
1077.98,2605.00
1080.16,2679.00
1082.34,2615.00
1084.51,2574.00
1086.68,2616.00
1088.85,2552.00
1091.02,2563.00
1093.19,2499.00
1095.35,2531.00
1097.52,2562.00
1099.68,2584.00
1101.84,2595.00
1104.00,2521.00
1106.16,2435.00
1108.32,2436.00
1110.48,2414.00
1112.63,2468.00
1114.78,2499.00
1116.93,2489.00
1119.08,2467.00
1121.23,2435.00
1123.38,2457.00
1125.52,2509.00
1127.67,2489.00
1129.81,2436.00
1131.95,2372.00
1134.09,2372.00
1136.22,2372.00
1138.36,2425.00
1140.50,2403.00
1142.63,2383.00
1144.76,2362.00
1146.89,2298.00
1149.02,2383.00
1151.15,2403.00
1153.27,2351.00
1155.40,2394.00
1157.52,2319.00
1159.64,2266.00
1161.76,2287.00
1163.88,2330.00
1165.99,2266.00
1168.11,2213.00
1170.22,2308.00
1172.34,2340.00
1174.45,2235.00
1176.56,2309.00
1178.66,2414.00
1180.77,2330.00
1182.88,2298.00
1184.98,2297.00
1187.08,2245.00
1189.18,2224.00
1191.28,2224.00
1193.38,2245.00
1195.47,2351.00
1197.57,2319.00
1199.66,2223.00
1201.75,2223.00
1203.85,2160.00
1205.93,2245.00
1208.02,2277.00
1210.11,2213.00
1212.19,2192.00
1214.28,2203.00
1216.36,2192.00
1218.44,2182.00
1220.52,2245.00
1222.59,2213.00
1224.67,2203.00
1226.74,2224.00
1228.82,2245.00
1230.89,2202.00
1232.96,2298.00
1235.03,2309.00
1237.10,2171.00
1239.16,2118.00
1241.23,2139.00
1243.29,2097.00
1245.35,2043.00
1247.41,2150.00
1249.47,2139.00
1251.53,2075.00
1253.58,2128.00
1255.64,2203.00
1257.69,2245.00
1259.74,2160.00
1261.79,2139.00
1263.84,2118.00
1265.89,2097.00
1267.93,2097.00
1269.98,2097.00
1272.02,2097.00
1274.06,2054.00
1276.10,2076.00
1278.14,2086.00
1280.18,2108.00
1282.22,2054.00
1284.25,2043.00
1286.28,1980.00
1288.32,1970.00
1290.35,2044.00
1292.38,2065.00
1294.40,2076.00
1296.43,2023.00
1298.46,2012.00
1300.48,2012.00
1302.50,2001.00
1304.52,2023.00
1306.54,2129.00
1308.56,2054.00
1310.58,1990.00
1312.59,2044.00
1314.60,2002.00
1316.62,2033.00
1318.63,2044.00
1320.64,2012.00
1322.65,2002.00
1324.65,2065.00
1326.66,2097.00
1328.66,2044.00
1330.66,2012.00
1332.67,2065.00
1334.67,2076.00
1336.66,2076.00
1338.66,2150.00
1340.66,2118.00
1342.65,2002.00
1344.65,1917.00
1346.64,1821.00
1348.63,1821.00
1350.62,1970.00
1352.60,2022.00
1354.59,1980.00
1356.57,1959.00
1358.56,1885.00
1360.54,1906.00
1362.52,1874.00
1364.50,1864.00
1366.48,1906.00
1368.46,1885.00
1370.43,1885.00
1372.41,1874.00
1374.38,1874.00
1376.35,1927.00
1378.32,1938.00
1380.29,1853.00
1382.25,1832.00
1384.22,1843.00
1386.18,1832.00
1388.15,1832.00
1390.11,1821.00
1392.07,1853.00
1394.03,1874.00
1395.99,1821.00
1397.94,1821.00
1399.90,1832.00
1401.85,1768.00
1403.80,1811.00
1405.76,1790.00
1407.71,1832.00
1409.65,1842.00
1411.60,1800.00
1413.55,1789.00
1415.49,1758.00
1417.44,1758.00
1419.38,1779.00
1421.32,1736.00
1423.26,1737.00
1425.19,1758.00
1427.13,1716.00
1429.07,1726.00
1431.00,1716.00
1432.93,1758.00
1434.86,1789.00
1436.79,1642.00
1438.72,1610.00
1440.65,1673.00
1442.57,1695.00
1444.50,1716.00
1446.42,1695.00
1448.34,1737.00
1450.26,1737.00
1452.18,1758.00
1454.10,1695.00
1456.02,1704.00
1457.93,1715.00
1459.85,1684.00
1461.76,1673.00
1463.67,1663.00
1465.58,1673.00
1467.49,1662.00
1469.40,1663.00
1471.31,1684.00
1473.21,1683.00
1475.11,1662.00
1477.02,1673.00
1478.92,1694.00
1480.82,1673.00
1482.72,1652.00
1484.61,1631.00
1486.51,1652.00
1488.40,1631.00
1490.30,1546.00
1492.19,1588.00
1494.08,1621.00
1495.97,1578.00
1497.86,1589.00
1499.74,1620.00
1501.63,1557.00
1503.51,1525.00
1505.40,1610.00
1507.28,1578.00
1509.16,1546.00
1511.04,1556.00
1512.92,1610.00
1514.79,1546.00
1516.67,1631.00
1518.54,1589.00
1520.42,1577.00
1522.29,1524.00
1524.16,1525.00
1526.03,1546.00
1527.89,1567.00
1529.76,1514.00
1531.63,1535.00
1533.49,1525.00
1535.35,1567.00
1537.21,1525.00
1539.07,1483.00
1540.93,1503.00
1542.79,1556.00
1544.65,1503.00
1546.50,1430.00
1548.36,1450.00
1550.21,1524.00
1552.06,1557.00
1553.91,1504.00
1555.76,1503.00
1557.61,1525.00
1559.45,1525.00
1561.30,1451.00
1563.14,1408.00
1564.98,1472.00
1566.82,1493.00
1568.67,1483.00
1570.50,1440.00
1572.34,1419.00
1574.18,1398.00
1576.01,1398.00
1577.85,1419.00
1579.68,1451.00
1581.51,1461.00
1583.34,1472.00
1585.17,1440.00
1587.00,1387.00
1588.82,1355.00
1590.65,1450.00
1592.47,1440.00
1594.30,1355.00
1596.12,1366.00
1597.94,1356.00
1599.76,1377.00
1601.57,1356.00
1603.39,1376.00
1605.21,1377.00
1607.02,1345.00
1608.83,1397.00
1610.64,1429.00
1612.45,1419.00
1614.26,1377.00
1616.07,1334.00
1617.88,1314.00
1619.68,1356.00
1621.49,1345.00
1623.29,1313.00
1625.09,1313.00
1626.89,1334.00
1628.69,1355.00
1630.49,1303.00
1632.29,1313.00
1634.08,1292.00
1635.88,1313.00
1637.67,1345.00
1639.46,1313.00
1641.25,1334.00
1643.04,1281.00
1644.83,1270.00
1646.62,1356.00
1648.41,1281.00
1650.19,1281.00
1651.97,1249.00
1653.76,1271.00
1655.54,1282.00
1657.32,1249.00
1659.10,1250.00
1660.88,1250.00
1662.65,1270.00
1664.43,1250.00
1666.20,1186.00
1667.97,1229.00
1669.75,1281.00
1671.52,1271.00
1673.29,1281.00
1675.05,1250.00
1676.82,1239.00
1678.59,1271.00
1680.35,1218.00
1682.11,1186.00
1683.88,1207.00
1685.64,1186.00
1687.40,1197.00
1689.16,1186.00
1690.91,1239.00
1692.67,1229.00
1694.42,1186.00
1696.18,1208.00
1697.93,1291.00
1699.68,1239.00
1701.43,1133.00
1703.18,1133.00
1704.93,1112.00
1706.68,1154.00
1708.42,1101.00
1710.17,1165.00
1711.91,1175.00
1713.65,1133.00
1715.39,1123.00
1717.13,1144.00
1718.87,1155.00
1720.61,1175.00
1722.35,1133.00
1724.08,1069.00
1725.81,1080.00
1727.55,1080.00
1729.28,1080.00
1731.01,1069.00
1732.74,1080.00
1734.47,1080.00
1736.19,1080.00
1737.92,1059.00
1739.64,1048.00
1741.37,1058.00
1743.09,1059.00
1744.81,1017.00
1746.53,1038.00
1748.25,995.00
1749.97,1016.00
1751.68,1070.00
1753.40,1081.00
1755.11,1101.00
1756.83,1101.00
1758.54,1059.00
1760.25,1101.00
1761.96,1059.00
1763.67,995.00
1765.38,1016.00
1767.08,1048.00
1768.79,1038.00
1770.49,1027.00
1772.19,995.00
1773.90,1038.00
1775.60,1006.00
1777.30,964.00
1778.99,953.00
1780.69,995.00
1782.39,1017.00
1784.08,1048.00
1785.78,1006.00
1787.47,974.00
1789.16,963.00
1790.85,964.00
1792.54,953.00
1794.23,964.00
1795.91,953.00
1797.60,1017.00
1799.28,1028.00
1800.97,963.00
1802.65,932.00
1804.33,932.00
1806.01,943.00
1807.69,995.00
1809.37,1006.00
1811.05,985.00
1812.72,964.00
1814.40,953.00
1816.07,975.00
1817.74,984.00
1819.41,1016.00
1821.08,975.00
1822.75,932.00
1824.42,995.00
1826.09,974.00
1827.75,963.00
1829.42,963.00
1831.08,984.00
1832.74,932.00
1834.40,953.00
1836.06,910.00
1837.72,911.00
1839.38,975.00
1841.04,995.00
1842.69,953.00
1844.35,868.00
1846.00,847.00
1847.65,921.00
1849.30,953.00
1850.95,974.00
1852.60,953.00
1854.25,921.00
1855.90,911.00
1857.54,911.00
1859.19,900.00
1860.83,857.00
1862.47,868.00
1864.12,911.00
1865.76,910.00
1867.40,805.00
1869.03,805.00
1870.67,869.00
1872.31,900.00
1873.94,953.00
1875.57,868.00
1877.21,826.00
1878.84,868.00
1880.47,964.00
1882.10,921.00
1883.73,857.00
1885.35,868.00
1886.98,847.00
1888.61,826.00
1890.23,848.00
1891.85,847.00
1893.47,837.00
1895.09,804.00
1896.71,784.00
1898.33,804.00
1899.95,815.00
1901.57,762.00
1903.18,783.00
1904.80,815.00
1906.41,826.00
1908.02,826.00
1909.63,825.00
1911.24,815.00
1912.85,826.00
1914.46,837.00
1916.07,857.00
1917.67,805.00
1919.28,795.00
1920.88,784.00
1922.48,794.00
1924.08,805.00
1925.68,762.00
1927.28,762.00
1928.88,783.00
1930.48,710.00
1932.07,699.00
1933.67,730.00
1935.26,741.00
1936.86,783.00
1938.45,783.00
1940.04,762.00
1941.63,742.00
1943.22,730.00
1944.80,721.00
1946.39,741.00
1947.98,741.00
1949.56,709.00
1951.14,762.00
1952.73,762.00
1954.31,731.00
1955.89,731.00
1957.47,731.00
1959.05,784.00
1960.62,763.00
1962.20,688.00
1963.77,710.00
1965.35,720.00
1966.92,699.00
1968.49,720.00
1970.06,741.00
1971.63,731.00
1973.20,773.00
1974.77,805.00
1976.34,731.00
1977.90,699.00
1979.47,720.00
1981.03,731.00
1982.59,720.00
1984.15,689.00
1985.71,688.00
1987.27,688.00
1988.83,625.00
1990.39,625.00
1991.94,741.00
1993.50,805.00
1995.05,752.00
1996.61,699.00
1998.16,688.00
1999.71,731.00
2001.26,699.00
2002.81,709.00
2004.36,678.00
2005.91,741.00
2007.45,752.00
2009.00,731.00
2010.54,688.00
2012.08,656.00
2013.62,699.00
2015.17,678.00
2016.71,678.00
2018.24,752.00
2019.78,710.00
2021.32,688.00
2022.85,677.00
2024.39,667.00
2025.92,699.00
2027.46,677.00
2028.99,646.00
2030.52,657.00
2032.05,625.00
2033.58,646.00
2035.10,657.00
2036.63,656.00
2038.16,635.00
2039.68,635.00
2041.21,636.00
2042.73,667.00
2044.25,688.00
2045.77,699.00
2047.29,668.00
2048.81,603.00
2050.33,615.00
2051.84,636.00
2053.36,636.00
2054.87,657.00
2056.39,604.00
2057.90,551.00
2059.41,583.00
2060.92,635.00
2062.43,614.00
2063.94,604.00
2065.45,667.00
2066.95,678.00
2068.46,614.00
2069.96,646.00
2071.47,625.00
2072.97,646.00
2074.47,614.00
2075.97,540.00
2077.47,530.00
2078.97,593.00
2080.47,603.00
2081.96,593.00
2083.46,593.00
2084.95,614.00
2086.45,593.00
2087.94,551.00
2089.43,572.00
2090.92,529.00
2092.41,550.00
2093.90,593.00
2095.39,614.00
2096.88,572.00
2098.36,508.00
2099.85,487.00
2101.33,561.00
2102.81,593.00
2104.30,551.00
2105.78,530.00
2107.26,550.00
2108.74,551.00
2110.21,530.00
2111.69,508.00
2113.17,509.00
2114.64,572.00
2116.12,571.00
2117.59,530.00
2119.06,508.00
2120.53,487.00
2122.00,476.00
2123.47,509.00
2124.94,487.00
2126.41,498.00
2127.87,519.00
2129.34,572.00
2130.80,562.00
2132.27,508.00
2133.73,562.00
2135.19,572.00
2136.65,551.00
2138.11,508.00
2139.57,540.00
2141.03,561.00
2142.48,540.00
2143.94,572.00
2145.39,541.00
2146.85,519.00
2148.30,509.00
2149.75,509.00
2151.20,477.00
2152.65,487.00
2154.10,487.00
2155.55,509.00
2157.00,519.00
2158.44,466.00
2159.89,477.00
2161.33,466.00
2162.78,530.00
2164.22,519.00
2165.66,561.00
2167.10,540.00
2168.54,487.00
2169.98,434.00
2171.42,477.00
2172.85,487.00
2174.29,456.00
2175.72,488.00
2177.16,551.00
2178.59,498.00
2180.02,456.00
2181.45,455.00
2182.88,530.00
2184.31,487.00
2185.74,476.00
2187.17,455.00
2188.59,434.00
2190.02,498.00
2191.44,497.00
2192.87,477.00
2194.29,423.00
2195.71,413.00
2197.13,445.00
2198.55,444.00
2199.97,455.00
2201.39,508.00
2202.81,498.00
2204.22,445.00
2205.64,423.00
2207.05,445.00
2208.46,477.00
2209.88,508.00
2211.29,455.00
2212.70,434.00
2214.11,466.00
2215.52,444.00
2216.92,434.00
2218.33,403.00
2219.74,466.00
2221.14,424.00
2222.54,392.00
2223.95,381.00
2225.35,392.00
2226.75,402.00
2228.15,466.00
2229.55,487.00
2230.95,476.00
2232.35,402.00
2233.74,402.00
2235.14,382.00
2236.53,434.00
2237.93,445.00
2239.32,370.00
2240.71,392.00
2242.10,424.00
2243.49,445.00
2244.88,402.00
2246.27,381.00
2247.66,424.00
2249.04,413.00
2250.43,466.00
2251.81,402.00
2253.20,392.00
2254.58,424.00
2255.96,445.00
2257.34,413.00
2258.72,392.00
2260.10,370.00
2261.48,360.00
2262.86,381.00
2264.23,402.00
2265.61,423.00
2266.98,402.00
2268.36,424.00
2269.73,455.00
2271.10,381.00
2272.47,360.00
2273.84,381.00
2275.21,381.00
2276.58,350.00
2277.95,381.00
2279.31,381.00
2280.68,339.00
2282.05,392.00
2283.41,402.00
2284.77,381.00
2286.13,413.00
2287.50,370.00
2288.86,349.00
2290.22,382.00
2291.57,381.00
2292.93,381.00
2294.29,360.00
2295.64,381.00
2297.00,381.00
2298.35,402.00
2299.71,381.00
2301.06,339.00
2302.41,318.00
2303.76,360.00
2305.11,413.00
2306.46,392.00
2307.81,360.00
2309.15,360.00
2310.50,339.00
2311.84,338.00
2313.19,349.00
2314.53,339.00
2315.87,339.00
2317.22,371.00
2318.56,382.00
2319.90,339.00
2321.24,360.00
2322.57,339.00
2323.91,339.00
2325.25,402.00
2326.58,413.00
2327.92,381.00
2329.25,381.00
2330.58,360.00
2331.91,403.00
2333.25,360.00
2334.58,329.00
2335.90,318.00
2337.23,328.00
2338.56,265.00
2339.89,317.00
2341.21,371.00
2342.54,338.00
2343.86,297.00
2345.19,275.00
2346.51,254.00
2347.83,265.00
2349.15,275.00
2350.47,307.00
2351.79,286.00
2353.11,307.00
2354.42,339.00
2355.74,339.00
2357.06,317.00
2358.37,328.00
2359.68,276.00
2361.00,212.00
2362.31,275.00
2363.62,297.00
2364.93,338.00
2366.24,339.00
2367.55,307.00
2368.86,339.00
2370.16,339.00
2371.47,233.00
2372.77,190.00
2374.08,222.00
2375.38,296.00
2376.68,339.00
2377.98,297.00
2379.29,286.00
2380.59,328.00
2381.88,276.00
2383.18,264.00
2384.48,233.00
2385.78,275.00
2387.07,297.00
2388.37,296.00
2389.66,296.00
2390.95,307.00
2392.25,254.00
2393.54,265.00
2394.83,264.00
2396.12,275.00
2397.41,307.00
2398.70,275.00
2399.98,286.00
2401.27,254.00
2402.55,244.00
2403.84,254.00
2405.12,233.00
2406.41,275.00
2407.69,276.00
2408.97,275.00
2410.25,212.00
2411.53,233.00
2412.81,276.00
2414.09,297.00
2415.36,286.00
2416.64,244.00
2417.91,180.00
2419.19,233.00
2420.46,296.00
2421.74,286.00
2423.01,244.00
2424.28,233.00
2425.55,212.00
2426.82,233.00
2428.09,233.00
2429.36,254.00
2430.62,254.00
2431.89,254.00
2433.15,276.00
2434.42,244.00
2435.68,223.00
2436.94,212.00
2438.21,212.00
2439.47,233.00
2440.73,255.00
2441.99,202.00
2443.25,212.00
2444.51,212.00
2445.76,222.00
2447.02,212.00
2448.27,307.00
2449.53,275.00
2450.78,255.00
2452.03,255.00
2453.29,275.00
2454.54,286.00
2455.79,297.00
2457.04,276.00
2458.29,264.00
2459.54,212.00
2460.78,233.00
2462.03,233.00
2463.27,233.00
2464.52,201.00
2465.76,223.00
2467.01,233.00
2468.25,191.00
2469.49,191.00
2470.73,223.00
2471.97,201.00
2473.21,212.00
2474.45,265.00
2475.69,255.00
2476.92,223.00
2478.16,212.00
2479.39,212.00
2480.63,211.00
2481.86,211.00
2483.09,255.00
2484.32,297.00
2485.56,212.00
2486.79,191.00
2488.02,222.00
2489.24,222.00
2490.47,212.00
2491.70,212.00
2492.92,212.00
2494.15,233.00
2495.37,191.00
2496.60,212.00
2497.82,254.00
2499.04,223.00
2500.26,222.00
2501.48,233.00
2502.70,222.00
2503.92,212.00
2505.14,222.00
2506.36,190.00
2507.58,254.00
2508.79,276.00
2510.01,254.00
2511.22,254.00
2512.43,212.00
2513.64,212.00
2514.86,212.00
2516.07,212.00
2517.28,191.00
2518.49,191.00
2519.70,159.00
2520.90,170.00
2522.11,233.00
2523.32,244.00
2524.52,169.00
2525.73,148.00
2526.93,170.00
2528.13,212.00
2529.33,212.00
2530.54,180.00
2531.74,190.00
2532.94,190.00
2534.14,212.00
2535.33,191.00
2536.53,180.00
2537.73,170.00
2538.92,212.00
2540.12,191.00
2541.31,170.00
2542.51,180.00
2543.70,148.00
2544.89,148.00
2546.08,191.00
2547.27,191.00
2548.46,170.00
2549.65,138.00
2550.84,138.00
2552.03,149.00
2553.21,148.00
2554.40,169.00
2555.58,159.00
2556.77,138.00
2557.95,170.00
2559.13,212.00
2560.31,190.00
2561.50,169.00
2562.68,169.00
2563.85,159.00
2565.03,148.00
2566.21,159.00
2567.39,211.00
2568.56,190.00
2569.74,190.00
2570.91,191.00
2572.09,212.00
2573.26,169.00
2574.43,117.00
2575.61,170.00
2576.78,180.00
2577.95,180.00
2579.12,159.00
2580.29,169.00
2581.45,159.00
2582.62,170.00
2583.79,149.00
2584.95,190.00
2586.12,202.00
2587.28,159.00
2588.44,127.00
2589.61,138.00
2590.77,191.00
2591.93,180.00
2593.09,127.00
2594.25,169.00
2595.41,191.00
2596.56,180.00
2597.72,191.00
2598.88,212.00
2600.03,223.00
2601.19,201.00
2602.34,211.00
2603.50,159.00
2604.65,169.00
2605.80,170.00
2606.95,128.00
2608.10,106.00
2609.25,127.00
2610.40,138.00
2611.55,159.00
2612.70,191.00
2613.84,170.00
2614.99,169.00
2616.13,116.00
2617.28,64.00
2618.42,106.00
2619.56,128.00
2620.71,127.00
2621.85,128.00
2622.99,138.00
2624.13,159.00
2625.27,190.00
2626.40,127.00
2627.54,127.00
2628.68,169.00
2629.81,191.00
2630.95,170.00
2632.08,159.00
2633.22,159.00
2634.35,117.00
2635.48,149.00
2636.61,170.00
2637.74,116.00
2638.87,149.00
2640.00,117.00
2641.13,138.00
2642.26,85.00
2643.39,106.00
2644.51,159.00
2645.64,159.00
2646.76,127.00
2647.89,127.00
2649.01,127.00
2650.13,127.00
2651.25,127.00
2652.38,116.00
2653.50,137.00
2654.62,128.00
2655.73,95.00
2656.85,148.00
2657.97,116.00
2659.09,148.00
2660.20,159.00
2661.32,95.00
2662.43,127.00
2663.55,180.00
2664.66,159.00
2665.77,128.00
2666.88,159.00
2667.99,127.00
2669.10,127.00
2670.21,127.00
2671.32,170.00
2672.43,148.00
2673.54,128.00
2674.64,127.00
2675.75,105.00
2676.85,127.00
2677.96,170.00
2679.06,170.00
2680.16,180.00
2681.26,190.00
2682.37,148.00
2683.47,106.00
2684.57,106.00
2685.66,117.00
2686.76,138.00
2687.86,159.00
2688.96,106.00
2690.05,138.00
2691.15,201.00
2692.24,159.00
2693.34,148.00
2694.43,127.00
2695.52,85.00
2696.62,116.00
2697.71,127.00
2698.80,117.00
2699.89,127.00
2700.98,84.00
2702.06,85.00
2703.15,117.00
2704.24,63.00
2705.32,106.00
2706.41,127.00
2707.49,84.00
2708.58,95.00
2709.66,96.00
2710.74,43.00
2711.83,95.00
2712.91,117.00
2713.99,106.00
2715.07,117.00
2716.15,127.00
2717.22,117.00
2718.30,148.00
2719.38,127.00
2720.45,96.00
2721.53,85.00
2722.60,138.00
2723.68,128.00
2724.75,64.00
2725.82,138.00
2726.89,116.00
2727.97,117.00
2729.04,85.00
2730.11,106.00
2731.17,127.00
2732.24,96.00
2733.31,106.00
2734.38,106.00
2735.44,137.00
2736.51,116.00
2737.57,85.00
2738.64,64.00
2739.70,127.00
2740.76,127.00
2741.82,138.00
2742.89,127.00
2743.95,106.00
2745.01,169.00
2746.07,159.00
2747.12,106.00
2748.18,127.00
2749.24,106.00
2750.29,95.00
2751.35,85.00
2752.40,117.00
2753.46,85.00
2754.51,106.00
2755.57,116.00
2756.62,137.00
2757.67,127.00
2758.72,127.00
2759.77,106.00
2760.82,96.00
2761.87,117.00
2762.91,106.00
2763.96,137.00
2765.01,95.00
2766.05,127.00
2767.10,116.00
2768.14,106.00
2769.19,106.00
2770.23,85.00
2771.27,96.00
2772.31,117.00
2773.35,106.00
2774.40,84.00
2775.43,85.00
2776.47,74.00
2777.51,43.00
2778.55,52.00
2779.59,106.00
2780.62,95.00
2781.66,105.00
2782.69,127.00
2783.73,117.00
2784.76,127.00
2785.79,85.00
2786.82,106.00
2787.85,106.00
2788.89,75.00
2789.92,96.00
2790.94,106.00
2791.97,127.00
2793.00,96.00
2794.03,96.00
2795.05,85.00
2796.08,63.00
2797.11,85.00
2798.13,117.00
2799.15,138.00
2800.18,96.00
2801.20,64.00
2802.22,53.00
2803.24,84.00
2804.26,106.00
2805.28,116.00
2806.30,106.00
2807.32,95.00
2808.34,84.00
2809.35,95.00
2810.37,32.00
2811.39,11.00
2812.40,42.00
2813.41,106.00
2814.43,85.00
2815.44,63.00
2816.45,85.00
2817.46,85.00
2818.48,95.00
2819.49,84.00
2820.49,85.00
2821.50,127.00
2822.51,64.00
2823.52,63.00
2824.53,127.00
2825.53,116.00
2826.54,85.00
2827.54,106.00
2828.55,128.00
2829.55,84.00
2830.55,63.00
2831.55,84.00
2832.56,74.00
2833.56,64.00
2834.56,53.00
2835.56,42.00
2836.56,105.00
2837.55,85.00
2838.55,43.00
2839.55,95.00
2840.54,84.00
2841.54,63.00
2842.53,53.00
2843.53,63.00
2844.52,106.00
2845.51,95.00
2846.51,74.00
2847.50,53.00
2848.49,53.00
2849.48,53.00
2850.47,63.00
2851.46,85.00
2852.45,42.00
2853.43,42.00
2854.42,53.00
2855.41,32.00
2856.39,63.00
2857.38,43.00
2858.36,74.00
2859.34,85.00
2860.33,84.00
2861.31,52.00
2862.29,43.00
2863.27,64.00
2864.25,63.00
2865.23,75.00
2866.21,43.00
2867.19,53.00
2868.17,53.00
2869.14,43.00
2870.12,53.00
2871.09,42.00
2872.07,42.00
2873.04,52.00
2874.02,53.00
2874.99,42.00
2875.96,84.00
2876.93,74.00
2877.91,85.00
2878.88,74.00
2879.85,63.00
2880.82,63.00
2881.78,53.00
2882.75,85.00
2883.72,106.00
2884.69,42.00
2885.65,64.00
2886.62,42.00
2887.58,84.00
2888.55,85.00
2889.51,127.00
2890.47,148.00
2891.43,84.00
2892.39,43.00
2893.36,32.00
2894.31,63.00
2895.27,21.00
2896.23,32.00
2897.19,127.00
2898.15,95.00
2899.11,85.00
2900.06,43.00
2901.02,21.00
2901.97,21.00
2902.93,21.00
2903.88,52.00
2904.83,43.00
2905.79,21.00
2906.74,53.00
2907.69,53.00
2908.64,32.00
2909.59,53.00
2910.54,95.00
2911.49,117.00
2912.43,85.00
2913.38,84.00
2914.33,74.00
2915.27,32.00
2916.22,74.00
2917.16,74.00
2918.11,74.00
2919.05,64.00
2919.99,63.00
2920.94,32.00
2921.88,11.00
2922.82,21.00
2923.76,32.00
2924.70,42.00
2925.64,85.00
2926.58,32.00
2927.51,43.00
2928.45,42.00
2929.39,53.00
2930.32,53.00
2931.26,53.00
2932.19,85.00
2933.13,64.00
2934.06,21.00
2934.99,53.00
2935.92,85.00
2936.86,74.00
2937.79,116.00
2938.72,117.00
2939.65,53.00
2940.57,21.00
2941.50,64.00
2942.43,21.00
2943.36,31.00
2944.28,85.00
2945.21,85.00
2946.13,84.00
2947.06,74.00
2947.98,117.00
2948.91,127.00
2949.83,74.00
2950.75,63.00
2951.67,53.00
2952.59,63.00
2953.51,85.00
2954.43,117.00
2955.35,106.00
2956.27,74.00
2957.19,75.00
2958.10,63.00
2959.02,53.00
2959.94,95.00
2960.85,75.00
2961.77,106.00
2962.68,63.00
2963.59,42.00
2964.51,53.00
2965.42,21.00
2966.33,42.00
2967.24,31.00
2968.15,53.00
2969.06,95.00
2969.97,64.00
2970.88,85.00
2971.78,85.00
2972.69,22.00
2973.60,21.00
2974.50,-21.00
2975.41,31.00
2976.31,85.00
2977.22,63.00
2978.12,42.00
2979.02,84.00
2979.93,63.00
2980.83,53.00
2981.73,43.00
2982.63,63.00
2983.53,84.00
2984.43,43.00
2985.33,43.00
2986.22,32.00
2987.12,21.00
2988.02,42.00
2988.91,74.00
2989.81,32.00
2990.70,63.00
2991.60,106.00
2992.49,106.00
2993.38,75.00
2994.28,63.00
2995.17,74.00
2996.06,64.00
2996.95,64.00
2997.84,85.00
2998.73,95.00
2999.62,85.00
3000.51,22.00
3001.40,10.00
3002.28,0.00
3003.17,0.00
3004.05,43.00
3004.94,31.00
3005.82,21.00
3006.71,32.00
3007.59,74.00
3008.47,64.00
3009.36,85.00
3010.24,63.00
3011.12,32.00
3012.00,0.00
3012.88,42.00
3013.76,42.00
3014.64,53.00
3015.51,21.00
3016.39,42.00
3017.27,53.00
3018.14,11.00
3019.02,31.00
3019.89,53.00
3020.77,64.00
3021.64,21.00
3022.52,0.00
3023.39,64.00
3024.26,74.00
3025.13,63.00
3026.00,42.00
3026.87,53.00
3027.74,-11.00
3028.61,21.00
3029.48,-10.00
3030.35,53.00
3031.21,21.00
3032.08,0.00
3032.95,42.00
3033.81,42.00
3034.68,11.00
3035.54,21.00
3036.40,43.00
3037.27,32.00
3038.13,0.00
3038.99,0.00
3039.85,21.00
3040.71,21.00
3041.57,11.00
3042.43,64.00
3043.29,85.00
3044.15,74.00
3045.01,53.00
3045.86,21.00
3046.72,0.00
3047.58,0.00
3048.43,43.00
3049.29,84.00
3050.14,43.00
3050.99,64.00
3051.85,74.00
3052.70,96.00
3053.55,42.00
3054.40,53.00
3055.25,32.00
3056.10,0.00
3056.95,0.00
3057.80,64.00
3058.65,64.00
3059.50,43.00
3060.34,53.00
3061.19,53.00
3062.04,74.00
3062.88,96.00
3063.73,106.00
3064.57,85.00
3065.42,42.00
3066.26,85.00
3067.10,64.00
3067.94,84.00
3068.78,64.00
3069.63,106.00
3070.47,85.00
3071.31,32.00
3072.14,74.00
3072.98,32.00
3073.82,0.00
3074.66,0.00
3075.49,0.00
3076.33,21.00
3077.17,22.00
3078.00,21.00
3078.83,21.00
3079.67,21.00
3080.50,43.00
3081.33,64.00
3082.17,42.00
3083.00,0.00
3083.83,10.00
3084.66,10.00
3085.49,42.00
3086.32,0.00
3087.15,21.00
3087.97,-11.00
3088.80,0.00
3089.63,32.00
3090.46,64.00
3091.28,32.00
3092.11,32.00
3092.93,32.00
3093.75,32.00
3094.58,64.00
3095.40,64.00
3096.22,32.00
3097.05,21.00
3097.87,64.00
3098.69,22.00
3099.51,10.00
3100.33,42.00
3101.15,63.00
3101.96,0.00
3102.78,11.00
3103.60,53.00
3104.42,84.00
3105.23,64.00
3106.05,-11.00
3106.86,32.00
3107.68,85.00
3108.49,74.00
3109.30,-21.00
3110.12,-22.00
3110.93,-11.00
3111.74,31.00
3112.55,32.00
3113.36,53.00
3114.17,64.00
3114.98,21.00
3115.79,53.00
3116.60,32.00
3117.40,21.00
3118.21,-10.00
3119.02,21.00
3119.82,43.00
3120.63,53.00
3121.43,42.00
3122.24,32.00
3123.04,0.00
3123.84,74.00
3124.65,63.00
3125.45,21.00
3126.25,0.00
3127.05,42.00
3127.85,42.00
3128.65,0.00
3129.45,0.00
3130.25,11.00
3131.05,0.00
3131.84,-21.00
3132.64,-32.00
3133.44,-21.00
3134.23,53.00
3135.03,42.00
3135.82,22.00
3136.62,11.00
3137.41,0.00
3138.20,10.00
3139.00,0.00
3139.79,-11.00
3140.58,53.00
3141.37,64.00
3142.16,63.00
3142.95,42.00
3143.74,53.00
3144.53,21.00
3145.32,21.00
3146.10,53.00
3146.89,0.00
3147.68,-10.00
3148.46,53.00
3149.25,0.00
3150.03,-43.00
3150.82,0.00
3151.60,53.00
3152.38,21.00
3153.17,0.00
3153.95,42.00
3154.73,0.00
3155.51,-11.00
3156.29,-22.00
3157.07,0.00
3157.85,21.00
3158.63,32.00
3159.41,-10.00
3160.18,0.00
3160.96,53.00
3161.74,53.00
3162.51,-11.00
3163.29,-22.00
3164.06,10.00
3164.84,0.00
3165.61,43.00
3166.38,84.00
3167.16,74.00
3167.93,22.00
3168.70,0.00
3169.47,42.00
3170.24,32.00
3171.01,32.00
3171.78,53.00
3172.55,21.00
3173.32,32.00
3174.09,63.00
3174.85,22.00
3175.62,-42.00
3176.39,-11.00
3177.15,0.00
3177.92,21.00
3178.68,0.00
3179.45,10.00
3180.21,42.00
3180.97,85.00
3181.73,42.00
3182.50,10.00
3183.26,11.00
3184.02,32.00
3184.78,64.00
3185.54,42.00
3186.30,42.00
3187.05,22.00
3187.81,-11.00
3188.57,-32.00
3189.33,42.00
3190.08,21.00
3190.84,-42.00
3191.59,21.00
3192.35,53.00
3193.10,22.00
3193.86,42.00
3194.61,0.00
3195.36,-21.00
3196.12,21.00
3196.87,42.00
3197.62,52.00
3198.37,10.00
3199.12,-10.00
3199.87,42.00
3200.62,21.00
3201.36,42.00
3202.11,0.00
3202.86,-31.00
3203.61,0.00
3204.35,-11.00
3205.10,11.00
3205.84,21.00
3206.59,21.00
3207.33,42.00
3208.08,10.00
3208.82,21.00
3209.56,42.00
3210.30,53.00
3211.05,-21.00
3211.79,-11.00
3212.53,0.00
3213.27,21.00
3214.01,21.00
3214.75,21.00
3215.48,0.00
3216.22,53.00
3216.96,21.00
3217.69,42.00
3218.43,53.00
3219.17,0.00
3219.90,-53.00
3220.64,0.00
3221.37,32.00
3222.10,0.00
3222.84,21.00
3223.57,64.00
3224.30,53.00
3225.03,74.00
3225.76,10.00
3226.49,11.00
3227.22,75.00
3227.95,53.00
3228.68,10.00
3229.41,43.00
3230.14,21.00
3230.87,0.00
3231.59,42.00
3232.32,0.00
3233.04,11.00
3233.77,-21.00
3234.49,0.00
3235.22,0.00
3235.94,21.00
3236.66,0.00
3237.39,0.00
3238.11,10.00
3238.83,43.00
3239.55,10.00
3240.27,-11.00
3240.99,21.00
3241.71,-32.00
3242.43,-22.00
3243.15,21.00
3243.87,-11.00
3244.58,11.00
3245.30,-32.00
3246.02,-10.00
3246.73,43.00
3247.45,85.00
3248.16,32.00
3248.88,31.00
3249.59,64.00
3250.30,63.00
3251.01,42.00
3251.73,11.00
3252.44,-63.00
3253.15,-21.00
3253.86,0.00
3254.57,-32.00
3255.28,21.00
3255.99,0.00
3256.70,-22.00
3257.41,-10.00
3258.11,21.00
3258.82,-21.00
3259.53,11.00
3260.23,0.00
3260.94,0.00
3261.64,0.00
3262.35,11.00
3263.05,22.00
3263.76,21.00
3264.46,74.00
3265.16,32.00
3265.86,0.00
3266.56,0.00
3267.26,-21.00
3267.97,21.00
3268.67,32.00
3269.36,21.00
3270.06,22.00
3270.76,0.00
3271.46,-22.00
3272.16,0.00
3272.85,0.00
