RamanShift,Intensity
180.91,238.00
183.74,275.00
186.56,381.00
189.39,498.00
192.21,699.00
195.03,996.00
197.84,1451.00
200.66,1917.00
203.47,2415.00
206.28,2965.00
209.09,3399.00
211.89,3854.00
214.70,4246.00
217.50,4543.00
220.30,4754.00
223.10,4945.00
225.89,5157.00
228.69,5220.00
231.48,5273.00
234.27,5284.00
237.05,5294.00
239.84,5231.00
242.62,5273.00
245.40,5305.00
248.18,5263.00
250.96,5062.00
253.73,5072.00
256.51,5104.00
259.28,4998.00
262.05,4776.00
264.81,4765.00
267.58,4702.00
270.34,4670.00
273.10,4680.00
275.86,4670.00
278.61,4627.00
281.37,4405.00
284.12,4416.00
286.87,4458.00
289.62,4458.00
292.36,4500.00
295.11,4564.00
297.85,4521.00
300.59,4553.00
303.33,4627.00
306.06,4554.00
308.80,4553.00
311.53,4595.00
314.26,4500.00
316.99,4384.00
319.71,4469.00
322.44,4543.00
325.16,4480.00
327.88,4426.00
330.59,4416.00
333.31,4543.00
336.02,4543.00
338.73,4458.00
341.44,4458.00
344.15,4331.00
346.86,4310.00
349.56,4416.00
352.26,4448.00
354.96,4352.00
357.66,4310.00
360.35,4395.00
363.05,4521.00
365.74,4543.00
368.43,4521.00
371.12,4596.00
373.80,4627.00
376.48,4554.00
379.17,4533.00
381.85,4500.00
384.52,4468.00
387.20,4617.00
389.87,4638.00
392.54,4543.00
395.21,4575.00
397.88,4659.00
400.55,4606.00
403.21,4649.00
405.87,4670.00
408.53,4606.00
411.19,4607.00
413.84,4606.00
416.50,4585.00
419.15,4522.00
421.80,4448.00
424.45,4458.00
427.10,4500.00
429.74,4458.00
432.38,4490.00
435.02,4554.00
437.66,4596.00
440.30,4395.00
442.93,4437.00
445.56,4521.00
448.19,4585.00
450.82,4649.00
453.45,4659.00
456.07,4648.00
458.70,4691.00
461.32,4713.00
463.94,4639.00
466.55,4564.00
469.17,4659.00
471.78,4681.00
474.39,4564.00
477.00,4469.00
479.61,4458.00
482.22,4490.00
484.82,4500.00
487.42,4575.00
490.02,4574.00
492.62,4596.00
495.21,4670.00
497.81,4500.00
500.40,4427.00
502.99,4490.00
505.58,4511.00
508.17,4490.00
510.75,4479.00
513.33,4468.00
515.91,4415.00
518.49,4320.00
521.07,4447.00
523.65,4511.00
526.22,4426.00
528.79,4383.00
531.36,4394.00
533.93,4394.00
536.49,4362.00
539.06,4299.00
541.62,4373.00
544.18,4447.00
546.74,4480.00
549.30,4458.00
551.85,4426.00
554.40,4479.00
556.95,4373.00
559.50,4342.00
562.05,4384.00
564.59,4310.00
567.14,4288.00
569.68,4288.00
572.22,4299.00
574.76,4289.00
577.29,4384.00
579.83,4331.00
582.36,4299.00
584.89,4214.00
587.42,4161.00
589.95,4193.00
592.47,4299.00
594.99,4204.00
597.52,4045.00
600.04,4141.00
602.55,4119.00
605.07,4024.00
607.58,4066.00
610.09,4204.00
612.60,4267.00
615.11,4172.00
617.62,4161.00
620.12,4088.00
622.63,3992.00
625.13,4045.00
627.63,4066.00
630.13,3993.00
632.62,3992.00
635.12,3960.00
637.61,3992.00
640.10,3960.00
642.59,3907.00
645.07,3897.00
647.56,3928.00
650.04,3897.00
652.52,3886.00
655.00,3918.00
657.48,3971.00
659.96,3907.00
662.43,3929.00
664.90,3833.00
667.37,3812.00
669.84,3833.00
672.31,3823.00
674.78,3950.00
677.24,4003.00
679.70,3950.00
682.16,3939.00
684.62,3907.00
687.08,3886.00
689.53,3886.00
691.98,3759.00
694.43,3727.00
696.88,3738.00
699.33,3706.00
701.78,3685.00
704.22,3707.00
706.66,3643.00
709.10,3706.00
711.54,3780.00
713.98,3696.00
716.42,3653.00
718.85,3812.00
721.28,3791.00
723.71,3770.00
726.14,3844.00
728.57,3929.00
730.99,3981.00
733.41,3950.00
735.83,3802.00
738.25,3696.00
740.67,3696.00
743.09,3632.00
745.50,3505.00
747.91,3505.00
750.33,3474.00
752.73,3452.00
755.14,3452.00
757.55,3515.00
759.95,3611.00
762.35,3579.00
764.75,3526.00
767.15,3452.00
769.55,3441.00
771.95,3484.00
774.34,3442.00
776.73,3441.00
779.12,3409.00
781.51,3463.00
783.90,3421.00
786.28,3421.00
788.67,3431.00
791.05,3409.00
793.43,3399.00
795.80,3389.00
798.18,3410.00
800.56,3335.00
802.93,3272.00
805.30,3335.00
807.67,3314.00
810.04,3314.00
812.40,3251.00
814.77,3188.00
817.13,3187.00
819.49,3167.00
821.85,3219.00
824.21,3272.00
826.57,3272.00
828.92,3251.00
831.27,3145.00
833.63,3177.00
835.98,3240.00
838.32,3198.00
840.67,3209.00
843.01,3251.00
845.36,3209.00
847.70,3167.00
850.04,3155.00
852.37,3124.00
854.71,3081.00
857.05,2996.00
859.38,2987.00
861.71,2997.00
864.04,3060.00
866.37,3028.00
868.69,3060.00
871.02,3007.00
873.34,2997.00
875.66,2975.00
877.98,3018.00
880.30,3061.00
882.62,2933.00
884.93,2902.00
887.24,2954.00
889.55,3007.00
891.86,2975.00
894.17,2944.00
896.48,2944.00
898.78,2976.00
901.09,2954.00
903.39,2944.00
905.69,2912.00
907.99,2923.00
910.28,2891.00
912.58,2954.00
914.87,2965.00
917.16,2955.00
919.45,2923.00
921.74,2806.00
924.03,2828.00
926.31,2785.00
928.60,2764.00
930.88,2849.00
933.16,2933.00
935.44,2922.00
937.72,2828.00
939.99,2679.00
942.26,2700.00
944.54,2807.00
946.81,2838.00
949.08,2806.00
951.34,2838.00
953.61,2923.00
955.87,2838.00
958.14,2721.00
960.40,2742.00
962.66,2721.00
964.92,2701.00
967.17,2764.00
969.43,2701.00
971.68,2615.00
973.93,2574.00
976.18,2595.00
978.43,2647.00
980.68,2626.00
982.92,2594.00
985.17,2552.00
987.41,2542.00
989.65,2489.00
991.89,2574.00
994.12,2658.00
996.36,2626.00
998.59,2509.00
1000.83,2541.00
1003.06,2595.00
1005.29,2520.00
1007.51,2425.00
1009.74,2573.00
1011.97,2616.00
1014.19,2552.00
1016.41,2552.00
1018.63,2573.00
1020.85,2552.00
1023.07,2499.00
1025.28,2510.00
1027.49,2541.00
1029.71,2552.00
1031.92,2457.00
1034.13,2425.00
1036.33,2467.00
1038.54,2509.00
1040.74,2510.00
1042.95,2425.00
1045.15,2425.00
1047.35,2457.00
1049.55,2383.00
1051.74,2425.00
1053.94,2446.00
1056.13,2340.00
1058.32,2329.00
1060.51,2362.00
1062.70,2436.00
1064.89,2468.00
1067.08,2436.00
1069.26,2468.00
1071.44,2520.00
1073.63,2362.00
1075.81,2351.00
1077.98,2436.00
1080.16,2361.00
1082.34,2340.00
1084.51,2351.00
1086.68,2287.00
1088.85,2266.00
1091.02,2277.00
1093.19,2319.00
1095.35,2308.00
1097.52,2309.00
1099.68,2372.00
1101.84,2340.00
1104.00,2330.00
1106.16,2372.00
1108.32,2351.00
1110.48,2309.00
1112.63,2277.00
1114.78,2150.00
1116.93,2203.00
1119.08,2234.00
1121.23,2129.00
1123.38,2203.00
1125.52,2298.00
1127.67,2224.00
1129.81,2202.00
1131.95,2171.00
1134.09,2170.00
1136.22,2171.00
1138.36,2161.00
1140.50,2171.00
1142.63,2129.00
1144.76,2150.00
1146.89,2097.00
1149.02,2150.00
1151.15,2150.00
1153.27,2129.00
1155.40,2129.00
1157.52,2086.00
1159.64,2033.00
1161.76,2086.00
1163.88,2128.00
1165.99,2086.00
1168.11,2034.00
1170.22,2086.00
1172.34,2139.00
1174.45,2097.00
1176.56,2065.00
1178.66,2107.00
1180.77,2086.00
1182.88,2034.00
1184.98,2097.00
1187.08,2160.00
1189.18,2097.00
1191.28,2160.00
1193.38,2171.00
1195.47,2033.00
1197.57,2012.00
1199.66,2118.00
1201.75,2160.00
1203.85,2118.00
1205.93,2107.00
1208.02,2054.00
1210.11,2118.00
1212.19,2087.00
1214.28,2086.00
1216.36,2075.00
1218.44,2012.00
1220.52,1906.00
1222.59,1917.00
1224.67,2055.00
1226.74,1991.00
1228.82,2012.00
1230.89,2023.00
1232.96,2022.00
1235.03,1970.00
1237.10,1991.00
1239.16,1949.00
1241.23,1927.00
1243.29,1969.00
1245.35,1991.00
1247.41,1948.00
1249.47,1906.00
1251.53,1917.00
1253.58,1938.00
1255.64,1916.00
1257.69,1970.00
1259.74,2012.00
1261.79,1885.00
1263.84,1832.00
1265.89,1853.00
1267.93,1843.00
1269.98,1927.00
1272.02,1885.00
1274.06,1864.00
1276.10,1843.00
1278.14,1895.00
1280.18,1896.00
1282.22,1843.00
1284.25,1864.00
1286.28,1885.00
1288.32,1863.00
1290.35,1874.00
1292.38,1843.00
1294.40,1853.00
1296.43,1822.00
1298.46,1832.00
1300.48,1874.00
1302.50,1800.00
1304.52,1747.00
1306.54,1779.00
1308.56,1843.00
1310.58,1821.00
1312.59,1801.00
1314.60,1737.00
1316.62,1779.00
1318.63,1864.00
1320.64,1853.00
1322.65,1832.00
1324.65,1874.00
1326.66,1853.00
1328.66,1832.00
1330.66,1853.00
1332.67,1885.00
1334.67,1822.00
1336.66,1864.00
1338.66,1832.00
1340.66,1821.00
1342.65,1778.00
1344.65,1758.00
1346.64,1673.00
1348.63,1726.00
1350.62,1705.00
1352.60,1736.00
1354.59,1747.00
1356.57,1737.00
1358.56,1704.00
1360.54,1737.00
1362.52,1768.00
1364.50,1705.00
1366.48,1662.00
1368.46,1641.00
1370.43,1663.00
1372.41,1726.00
1374.38,1652.00
1376.35,1599.00
1378.32,1620.00
1380.29,1715.00
1382.25,1769.00
1384.22,1726.00
1386.18,1694.00
1388.15,1694.00
1390.11,1673.00
1392.07,1630.00
1394.03,1620.00
1395.99,1620.00
1397.94,1578.00
1399.90,1609.00
1401.85,1631.00
1403.80,1652.00
1405.76,1652.00
1407.71,1652.00
1409.65,1599.00
1411.60,1578.00
1413.55,1546.00
1415.49,1620.00
1417.44,1631.00
1419.38,1641.00
1421.32,1621.00
1423.26,1567.00
1425.19,1546.00
1427.13,1557.00
1429.07,1641.00
1431.00,1620.00
1432.93,1514.00
1434.86,1535.00
1436.79,1609.00
1438.72,1577.00
1440.65,1535.00
1442.57,1471.00
1444.50,1503.00
1446.42,1546.00
1448.34,1546.00
1450.26,1599.00
1452.18,1567.00
1454.10,1599.00
1456.02,1599.00
1457.93,1536.00
1459.85,1525.00
1461.76,1631.00
1463.67,1567.00
1465.58,1482.00
1467.49,1440.00
1469.40,1419.00
1471.31,1461.00
1473.21,1450.00
1475.11,1419.00
1477.02,1429.00
1478.92,1493.00
1480.82,1471.00
1482.72,1504.00
1484.61,1472.00
1486.51,1408.00
1488.40,1451.00
1490.30,1387.00
1492.19,1355.00
1494.08,1451.00
1495.97,1472.00
1497.86,1387.00
1499.74,1398.00
1501.63,1387.00
1503.51,1398.00
1505.40,1451.00
1507.28,1483.00
1509.16,1472.00
1511.04,1440.00
1512.92,1429.00
1514.79,1440.00
1516.67,1366.00
1518.54,1387.00
1520.42,1377.00
1522.29,1462.00
1524.16,1419.00
1526.03,1345.00
1527.89,1398.00
1529.76,1366.00
1531.63,1303.00
1533.49,1292.00
1535.35,1334.00
1537.21,1355.00
1539.07,1377.00
1540.93,1324.00
1542.79,1387.00
1544.65,1376.00
1546.50,1323.00
1548.36,1324.00
1550.21,1302.00
1552.06,1291.00
1553.91,1313.00
1555.76,1356.00
1557.61,1292.00
1559.45,1270.00
1561.30,1334.00
1563.14,1303.00
1564.98,1260.00
1566.82,1345.00
1568.67,1356.00
1570.50,1292.00
1572.34,1249.00
1574.18,1335.00
1576.01,1345.00
1577.85,1366.00
1579.68,1334.00
1581.51,1345.00
1583.34,1302.00
1585.17,1239.00
1587.00,1207.00
1588.82,1207.00
1590.65,1208.00
1592.47,1281.00
1594.30,1281.00
1596.12,1271.00
1597.94,1239.00
1599.76,1186.00
1601.57,1165.00
1603.39,1218.00
1605.21,1292.00
1607.02,1291.00
1608.83,1239.00
1610.64,1144.00
1612.45,1133.00
1614.26,1218.00
1616.07,1282.00
1617.88,1228.00
1619.68,1207.00
1621.49,1101.00
1623.29,1080.00
1625.09,1175.00
1626.89,1165.00
1628.69,1197.00
1630.49,1228.00
1632.29,1176.00
1634.08,1165.00
1635.88,1186.00
1637.67,1165.00
1639.46,1143.00
1641.25,1175.00
1643.04,1144.00
1644.83,1101.00
1646.62,1122.00
1648.41,1144.00
1650.19,1112.00
1651.97,1164.00
1653.76,1197.00
1655.54,1133.00
1657.32,1059.00
1659.10,1112.00
1660.88,1112.00
1662.65,1123.00
1664.43,1101.00
1666.20,1090.00
1667.97,1059.00
1669.75,1070.00
1671.52,1101.00
1673.29,1101.00
1675.05,1091.00
1676.82,1069.00
1678.59,1069.00
1680.35,1080.00
1682.11,1102.00
1683.88,1133.00
1685.64,1059.00
1687.40,1016.00
1689.16,1048.00
1690.91,1059.00
1692.67,1091.00
1694.42,1122.00
1696.18,1059.00
1697.93,1058.00
1699.68,1080.00
1701.43,1102.00
1703.18,1143.00
1704.93,1101.00
1706.68,1017.00
1708.42,1027.00
1710.17,1017.00
1711.91,1038.00
1713.65,1006.00
1715.39,984.00
1717.13,932.00
1718.87,985.00
1720.61,1016.00
1722.35,974.00
1724.08,964.00
1725.81,932.00
1727.55,932.00
1729.28,1027.00
1731.01,1038.00
1732.74,1006.00
1734.47,942.00
1736.19,953.00
1737.92,985.00
1739.64,974.00
1741.37,964.00
1743.09,963.00
1744.81,963.00
1746.53,911.00
1748.25,953.00
1749.97,1006.00
1751.68,1017.00
1753.40,953.00
1755.11,942.00
1756.83,942.00
1758.54,921.00
1760.25,879.00
1761.96,932.00
1763.67,911.00
1765.38,847.00
1767.08,910.00
1768.79,911.00
1770.49,847.00
1772.19,868.00
1773.90,879.00
1775.60,879.00
1777.30,921.00
1778.99,858.00
1780.69,847.00
1782.39,943.00
1784.08,964.00
1785.78,847.00
1787.47,847.00
1789.16,868.00
1790.85,868.00
1792.54,826.00
1794.23,805.00
1795.91,847.00
1797.60,878.00
1799.28,858.00
1800.97,890.00
1802.65,953.00
1804.33,911.00
1806.01,858.00
1807.69,847.00
1809.37,826.00
1811.05,858.00
1812.72,847.00
1814.40,869.00
1816.07,868.00
1817.74,858.00
1819.41,847.00
1821.08,826.00
1822.75,837.00
1824.42,826.00
1826.09,815.00
1827.75,773.00
1829.42,815.00
1831.08,879.00
1832.74,826.00
1834.40,805.00
1836.06,784.00
1837.72,773.00
1839.38,773.00
1841.04,773.00
1842.69,805.00
1844.35,826.00
1846.00,847.00
1847.65,804.00
1849.30,763.00
1850.95,794.00
1852.60,847.00
1854.25,794.00
1855.90,763.00
1857.54,762.00
1859.19,762.00
1860.83,784.00
1862.47,763.00
1864.12,762.00
1865.76,773.00
1867.40,773.00
1869.03,752.00
1870.67,773.00
1872.31,773.00
1873.94,741.00
1875.57,742.00
1877.21,731.00
1878.84,709.00
1880.47,698.00
1882.10,741.00
1883.73,741.00
1885.35,763.00
1886.98,752.00
1888.61,677.00
1890.23,698.00
1891.85,730.00
1893.47,720.00
1895.09,731.00
1896.71,731.00
1898.33,720.00
1899.95,689.00
1901.57,741.00
1903.18,710.00
1904.80,709.00
1906.41,741.00
1908.02,763.00
1909.63,731.00
1911.24,646.00
1912.85,688.00
1914.46,731.00
1916.07,710.00
1917.67,699.00
1919.28,699.00
1920.88,720.00
1922.48,762.00
1924.08,710.00
1925.68,657.00
1927.28,667.00
1928.88,624.00
1930.48,593.00
1932.07,604.00
1933.67,604.00
1935.26,688.00
1936.86,710.00
1938.45,614.00
1940.04,603.00
1941.63,593.00
1943.22,604.00
1944.80,614.00
1946.39,656.00
1947.98,667.00
1949.56,678.00
1951.14,625.00
1952.73,593.00
1954.31,603.00
1955.89,656.00
1957.47,636.00
1959.05,657.00
1960.62,625.00
1962.20,603.00
1963.77,614.00
1965.35,678.00
1966.92,699.00
1968.49,667.00
1970.06,645.00
1971.63,678.00
1973.20,657.00
1974.77,625.00
1976.34,625.00
1977.90,593.00
1979.47,593.00
1981.03,635.00
1982.59,677.00
1984.15,667.00
1985.71,678.00
1987.27,593.00
1988.83,593.00
1990.39,646.00
1991.94,678.00
1993.50,646.00
1995.05,583.00
1996.61,604.00
1998.16,561.00
1999.71,604.00
2001.26,646.00
2002.81,657.00
2004.36,657.00
2005.91,614.00
2007.45,604.00
2009.00,615.00
2010.54,614.00
2012.08,593.00
2013.62,572.00
2015.17,582.00
2016.71,625.00
2018.24,582.00
2019.78,646.00
2021.32,635.00
2022.85,603.00
2024.39,646.00
2025.92,593.00
2027.46,551.00
2028.99,582.00
2030.52,614.00
2032.05,593.00
2033.58,571.00
2035.10,603.00
2036.63,635.00
2038.16,593.00
2039.68,551.00
2041.21,582.00
2042.73,529.00
2044.25,604.00
2045.77,562.00
2047.29,551.00
2048.81,582.00
2050.33,561.00
2051.84,572.00
2053.36,615.00
2054.87,615.00
2056.39,593.00
2057.90,572.00
2059.41,593.00
2060.92,561.00
2062.43,498.00
2063.94,529.00
2065.45,561.00
2066.95,551.00
2068.46,582.00
2069.96,614.00
2071.47,551.00
2072.97,498.00
2074.47,509.00
2075.97,519.00
2077.47,551.00
2078.97,551.00
2080.47,498.00
2081.96,551.00
2083.46,583.00
2084.95,572.00
2086.45,572.00
2087.94,551.00
2089.43,550.00
2090.92,604.00
2092.41,540.00
2093.90,551.00
2095.39,498.00
2096.88,434.00
2098.36,434.00
2099.85,466.00
2101.33,487.00
2102.81,508.00
2104.30,444.00
2105.78,476.00
2107.26,498.00
2108.74,487.00
2110.21,508.00
2111.69,551.00
2113.17,550.00
2114.64,508.00
2116.12,561.00
2117.59,519.00
2119.06,509.00
2120.53,498.00
2122.00,466.00
2123.47,476.00
2124.94,498.00
2126.41,423.00
2127.87,477.00
2129.34,487.00
2130.80,476.00
2132.27,487.00
2133.73,423.00
2135.19,403.00
2136.65,456.00
2138.11,488.00
2139.57,476.00
2141.03,434.00
2142.48,445.00
2143.94,445.00
2145.39,423.00
2146.85,455.00
2148.30,498.00
2149.75,455.00
2151.20,466.00
2152.65,466.00
2154.10,477.00
2155.55,455.00
2157.00,466.00
2158.44,487.00
2159.89,477.00
2161.33,456.00
2162.78,445.00
2164.22,423.00
2165.66,445.00
2167.10,466.00
2168.54,477.00
2169.98,403.00
2171.42,424.00
2172.85,434.00
2174.29,487.00
2175.72,487.00
2177.16,477.00
2178.59,455.00
2180.02,455.00
2181.45,435.00
2182.88,424.00
2184.31,455.00
2185.74,371.00
2187.17,403.00
2188.59,424.00
2190.02,424.00
2191.44,466.00
2192.87,455.00
2194.29,476.00
2195.71,456.00
2197.13,435.00
2198.55,444.00
2199.97,423.00
2201.39,402.00
2202.81,445.00
2204.22,423.00
2205.64,445.00
2207.05,445.00
2208.46,434.00
2209.88,371.00
2211.29,402.00
2212.70,413.00
2214.11,413.00
2215.52,477.00
2216.92,434.00
2218.33,392.00
2219.74,382.00
2221.14,392.00
2222.54,402.00
2223.95,382.00
2225.35,360.00
2226.75,339.00
2228.15,307.00
2229.55,296.00
2230.95,339.00
2232.35,360.00
2233.74,339.00
2235.14,349.00
2236.53,328.00
2237.93,339.00
2239.32,402.00
2240.71,402.00
2242.10,360.00
2243.49,360.00
2244.88,381.00
2246.27,371.00
2247.66,328.00
2249.04,350.00
2250.43,413.00
2251.81,403.00
2253.20,381.00
2254.58,381.00
2255.96,339.00
2257.34,339.00
2258.72,350.00
2260.10,360.00
2261.48,392.00
2262.86,307.00
2264.23,307.00
2265.61,328.00
2266.98,307.00
2268.36,350.00
2269.73,297.00
2271.10,308.00
2272.47,339.00
2273.84,350.00
2275.21,381.00
2276.58,360.00
2277.95,328.00
2279.31,286.00
2280.68,307.00
2282.05,318.00
2283.41,296.00
2284.77,265.00
2286.13,275.00
2287.50,318.00
2288.86,339.00
2290.22,339.00
2291.57,297.00
2292.93,307.00
2294.29,243.00
2295.64,275.00
2297.00,339.00
2298.35,307.00
2299.71,296.00
2301.06,297.00
2302.41,276.00
2303.76,339.00
2305.11,318.00
2306.46,317.00
2307.81,286.00
2309.15,307.00
2310.50,339.00
2311.84,318.00
2313.19,254.00
2314.53,265.00
2315.87,307.00
2317.22,339.00
2318.56,328.00
2319.90,360.00
2321.24,349.00
2322.57,307.00
2323.91,350.00
2325.25,318.00
2326.58,265.00
2327.92,275.00
2329.25,275.00
2330.58,254.00
2331.91,275.00
2333.25,254.00
2334.58,275.00
2335.90,265.00
2337.23,297.00
2338.56,275.00
2339.89,286.00
2341.21,318.00
2342.54,329.00
2343.86,339.00
2345.19,297.00
2346.51,254.00
2347.83,265.00
2349.15,318.00
2350.47,328.00
2351.79,275.00
2353.11,254.00
2354.42,233.00
2355.74,296.00
2357.06,233.00
2358.37,254.00
2359.68,264.00
2361.00,254.00
2362.31,254.00
2363.62,244.00
2364.93,244.00
2366.24,275.00
2367.55,265.00
2368.86,265.00
2370.16,276.00
2371.47,265.00
2372.77,233.00
2374.08,222.00
2375.38,233.00
2376.68,254.00
2377.98,233.00
2379.29,222.00
2380.59,254.00
2381.88,307.00
2383.18,328.00
2384.48,275.00
2385.78,233.00
2387.07,243.00
2388.37,275.00
2389.66,350.00
2390.95,307.00
2392.25,275.00
2393.54,275.00
2394.83,254.00
2396.12,254.00
2397.41,254.00
2398.70,243.00
2399.98,201.00
2401.27,275.00
2402.55,276.00
2403.84,254.00
2405.12,286.00
2406.41,275.00
2407.69,265.00
2408.97,254.00
2410.25,201.00
2411.53,222.00
2412.81,222.00
2414.09,244.00
2415.36,254.00
2416.64,212.00
2417.91,222.00
2419.19,243.00
2420.46,190.00
2421.74,148.00
2423.01,180.00
2424.28,233.00
2425.55,243.00
2426.82,212.00
2428.09,265.00
2429.36,275.00
2430.62,275.00
2431.89,212.00
2433.15,222.00
2434.42,233.00
2435.68,243.00
2436.94,212.00
2438.21,212.00
2439.47,212.00
2440.73,169.00
2441.99,190.00
2443.25,180.00
2444.51,222.00
2445.76,211.00
2447.02,211.00
2448.27,222.00
2449.53,232.00
2450.78,201.00
2452.03,201.00
2453.29,191.00
2454.54,169.00
2455.79,212.00
2457.04,244.00
2458.29,212.00
2459.54,201.00
2460.78,233.00
2462.03,222.00
2463.27,191.00
2464.52,170.00
2465.76,149.00
2467.01,148.00
2468.25,190.00
2469.49,202.00
2470.73,159.00
2471.97,191.00
2473.21,233.00
2474.45,233.00
2475.69,190.00
2476.92,212.00
2478.16,265.00
2479.39,233.00
2480.63,222.00
2481.86,222.00
2483.09,222.00
2484.32,254.00
2485.56,212.00
2486.79,191.00
2488.02,148.00
2489.24,212.00
2490.47,244.00
2491.70,201.00
2492.92,180.00
2494.15,148.00
2495.37,212.00
2496.60,190.00
2497.82,180.00
2499.04,190.00
2500.26,201.00
2501.48,169.00
2502.70,190.00
2503.92,170.00
2505.14,180.00
2506.36,170.00
2507.58,211.00
2508.79,201.00
2510.01,148.00
2511.22,211.00
2512.43,201.00
2513.64,158.00
2514.86,170.00
2516.07,127.00
2517.28,148.00
2518.49,170.00
2519.70,212.00
2520.90,148.00
2522.11,180.00
2523.32,222.00
2524.52,211.00
2525.73,201.00
2526.93,201.00
2528.13,233.00
2529.33,222.00
2530.54,212.00
2531.74,201.00
2532.94,191.00
2534.14,190.00
2535.33,148.00
2536.53,169.00
2537.73,190.00
2538.92,116.00
2540.12,138.00
2541.31,127.00
2542.51,222.00
2543.70,233.00
2544.89,222.00
2546.08,222.00
2547.27,159.00
2548.46,148.00
2549.65,170.00
2550.84,169.00
2552.03,169.00
2553.21,180.00
2554.40,169.00
2555.58,159.00
2556.77,138.00
2557.95,106.00
2559.13,85.00
2560.31,127.00
2561.50,169.00
2562.68,180.00
2563.85,222.00
2565.03,191.00
2566.21,170.00
2567.39,190.00
2568.56,191.00
2569.74,201.00
2570.91,201.00
2572.09,169.00
2573.26,169.00
2574.43,170.00
2575.61,148.00
2576.78,127.00
2577.95,180.00
2579.12,211.00
2580.29,180.00
2581.45,180.00
2582.62,190.00
2583.79,127.00
2584.95,74.00
2586.12,137.00
2587.28,169.00
2588.44,159.00
2589.61,137.00
2590.77,128.00
2591.93,127.00
2593.09,137.00
2594.25,106.00
2595.41,85.00
2596.56,106.00
2597.72,95.00
2598.88,96.00
2600.03,96.00
2601.19,137.00
2602.34,169.00
2603.50,169.00
2604.65,127.00
2605.80,148.00
2606.95,159.00
2608.10,127.00
2609.25,106.00
2610.40,148.00
2611.55,190.00
2612.70,148.00
2613.84,137.00
2614.99,127.00
2616.13,148.00
2617.28,159.00
2618.42,85.00
2619.56,148.00
2620.71,190.00
2621.85,148.00
2622.99,191.00
2624.13,137.00
2625.27,106.00
2626.40,148.00
2627.54,117.00
2628.68,95.00
2629.81,63.00
2630.95,106.00
2632.08,169.00
2633.22,149.00
2634.35,95.00
2635.48,137.00
2636.61,106.00
2637.74,117.00
2638.87,106.00
2640.00,127.00
2641.13,127.00
2642.26,190.00
2643.39,149.00
2644.51,116.00
2645.64,148.00
2646.76,117.00
2647.89,96.00
2649.01,63.00
2650.13,63.00
2651.25,106.00
2652.38,84.00
2653.50,63.00
2654.62,95.00
2655.73,84.00
2656.85,137.00
2657.97,159.00
2659.09,117.00
2660.20,148.00
2661.32,169.00
2662.43,106.00
2663.55,106.00
2664.66,106.00
2665.77,127.00
2666.88,106.00
2667.99,85.00
2669.10,105.00
2670.21,95.00
2671.32,85.00
2672.43,127.00
2673.54,116.00
2674.64,84.00
2675.75,138.00
2676.85,127.00
2677.96,85.00
2679.06,84.00
2680.16,84.00
2681.26,84.00
2682.37,63.00
2683.47,64.00
2684.57,127.00
2685.66,106.00
2686.76,106.00
2687.86,170.00
2688.96,148.00
2690.05,127.00
2691.15,148.00
2692.24,117.00
2693.34,95.00
2694.43,116.00
2695.52,106.00
2696.62,106.00
2697.71,106.00
2698.80,169.00
2699.89,116.00
2700.98,127.00
2702.06,116.00
2703.15,74.00
2704.24,85.00
2705.32,159.00
2706.41,148.00
2707.49,127.00
2708.58,96.00
2709.66,85.00
2710.74,106.00
2711.83,138.00
2712.91,170.00
2713.99,149.00
2715.07,85.00
2716.15,95.00
2717.22,127.00
2718.30,117.00
2719.38,127.00
2720.45,127.00
2721.53,116.00
2722.60,85.00
2723.68,127.00
2724.75,149.00
2725.82,127.00
2726.89,117.00
2727.97,95.00
2729.04,127.00
2730.11,96.00
2731.17,85.00
2732.24,64.00
2733.31,74.00
2734.38,84.00
2735.44,85.00
2736.51,64.00
2737.57,43.00
2738.64,63.00
2739.70,95.00
2740.76,127.00
2741.82,116.00
2742.89,127.00
2743.95,106.00
2745.01,105.00
2746.07,127.00
2747.12,149.00
2748.18,127.00
2749.24,63.00
2750.29,85.00
2751.35,63.00
2752.40,63.00
2753.46,85.00
2754.51,64.00
2755.57,95.00
2756.62,84.00
2757.67,106.00
2758.72,85.00
2759.77,84.00
2760.82,106.00
2761.87,84.00
2762.91,138.00
2763.96,127.00
2765.01,106.00
2766.05,127.00
2767.10,96.00
2768.14,106.00
2769.19,137.00
2770.23,127.00
2771.27,85.00
2772.31,64.00
2773.35,95.00
2774.40,106.00
2775.43,95.00
2776.47,95.00
2777.51,85.00
2778.55,53.00
2779.59,85.00
2780.62,63.00
2781.66,96.00
2782.69,106.00
2783.73,85.00
2784.76,85.00
2785.79,74.00
2786.82,95.00
2787.85,32.00
2788.89,42.00
2789.92,84.00
2790.94,127.00
2791.97,95.00
2793.00,74.00
2794.03,42.00
2795.05,42.00
2796.08,63.00
2797.11,63.00
2798.13,74.00
2799.15,84.00
2800.18,138.00
2801.20,106.00
2802.22,85.00
2803.24,106.00
2804.26,84.00
2805.28,116.00
2806.30,64.00
2807.32,42.00
2808.34,74.00
2809.35,84.00
2810.37,95.00
2811.39,116.00
2812.40,106.00
2813.41,42.00
2814.43,106.00
2815.44,169.00
2816.45,148.00
2817.46,95.00
2818.48,21.00
2819.49,53.00
2820.49,42.00
2821.50,63.00
2822.51,84.00
2823.52,21.00
2824.53,84.00
2825.53,158.00
2826.54,116.00
2827.54,106.00
2828.55,43.00
2829.55,43.00
2830.55,43.00
2831.55,95.00
2832.56,84.00
2833.56,85.00
2834.56,127.00
2835.56,106.00
2836.56,85.00
2837.55,106.00
2838.55,105.00
2839.55,85.00
2840.54,85.00
2841.54,85.00
2842.53,95.00
2843.53,84.00
2844.52,53.00
2845.51,75.00
2846.51,53.00
2847.50,74.00
2848.49,74.00
2849.48,21.00
2850.47,53.00
2851.46,85.00
2852.45,74.00
2853.43,64.00
2854.42,64.00
2855.41,42.00
2856.39,21.00
2857.38,11.00
2858.36,21.00
2859.34,52.00
2860.33,85.00
2861.31,74.00
2862.29,63.00
2863.27,74.00
2864.25,95.00
2865.23,159.00
2866.21,106.00
2867.19,32.00
2868.17,42.00
2869.14,64.00
2870.12,64.00
2871.09,64.00
2872.07,96.00
2873.04,106.00
2874.02,105.00
2874.99,95.00
2875.96,74.00
2876.93,63.00
2877.91,64.00
2878.88,31.00
2879.85,53.00
2880.82,64.00
2881.78,85.00
2882.75,84.00
2883.72,95.00
2884.69,85.00
2885.65,-32.00
2886.62,10.00
2887.58,75.00
2888.55,53.00
2889.51,43.00
2890.47,32.00
2891.43,32.00
2892.39,74.00
2893.36,42.00
2894.31,64.00
2895.27,32.00
2896.23,10.00
2897.19,106.00
2898.15,95.00
2899.11,105.00
2900.06,64.00
2901.02,106.00
2901.97,127.00
2902.93,42.00
2903.88,63.00
2904.83,95.00
2905.79,32.00
2906.74,21.00
2907.69,52.00
2908.64,117.00
2909.59,148.00
2910.54,64.00
2911.49,96.00
2912.43,117.00
2913.38,32.00
2914.33,-11.00
2915.27,10.00
2916.22,74.00
2917.16,74.00
2918.11,42.00
2919.05,75.00
2919.99,74.00
2920.94,84.00
2921.88,53.00
2922.82,53.00
2923.76,42.00
2924.70,95.00
2925.64,95.00
2926.58,95.00
2927.51,74.00
2928.45,53.00
2929.39,85.00
2930.32,43.00
2931.26,63.00
2932.19,64.00
2933.13,22.00
2934.06,0.00
2934.99,53.00
2935.92,42.00
2936.86,85.00
2937.79,84.00
2938.72,63.00
2939.65,63.00
2940.57,64.00
2941.50,105.00
2942.43,64.00
2943.36,42.00
2944.28,31.00
2945.21,21.00
2946.13,53.00
2947.06,63.00
2947.98,63.00
2948.91,-21.00
2949.83,11.00
2950.75,10.00
2951.67,32.00
2952.59,21.00
2953.51,10.00
2954.43,-32.00
2955.35,21.00
2956.27,63.00
2957.19,106.00
2958.10,21.00
2959.02,21.00
2959.94,74.00
2960.85,84.00
2961.77,21.00
2962.68,10.00
2963.59,0.00
2964.51,84.00
2965.42,53.00
2966.33,21.00
2967.24,32.00
2968.15,42.00
2969.06,31.00
2969.97,42.00
2970.88,10.00
2971.78,0.00
2972.69,53.00
2973.60,32.00
2974.50,43.00
2975.41,53.00
2976.31,21.00
2977.22,0.00
2978.12,63.00
2979.02,75.00
2979.93,32.00
2980.83,0.00
2981.73,31.00
2982.63,32.00
2983.53,11.00
2984.43,22.00
2985.33,21.00
2986.22,10.00
2987.12,10.00
2988.02,63.00
2988.91,31.00
2989.81,52.00
2990.70,74.00
2991.60,63.00
2992.49,10.00
2993.38,21.00
2994.28,63.00
2995.17,53.00
2996.06,53.00
2996.95,74.00
2997.84,95.00
2998.73,95.00
2999.62,85.00
3000.51,21.00
3001.40,-21.00
3002.28,-11.00
3003.17,0.00
3004.05,42.00
3004.94,85.00
3005.82,116.00
3006.71,85.00
3007.59,117.00
3008.47,84.00
3009.36,64.00
3010.24,75.00
3011.12,74.00
3012.00,10.00
3012.88,53.00
3013.76,84.00
3014.64,42.00
3015.51,43.00
3016.39,-21.00
3017.27,-11.00
3018.14,74.00
3019.02,43.00
3019.89,42.00
3020.77,74.00
3021.64,42.00
3022.52,42.00
3023.39,74.00
3024.26,21.00
3025.13,21.00
3026.00,53.00
3026.87,32.00
3027.74,53.00
3028.61,53.00
3029.48,64.00
3030.35,21.00
3031.21,0.00
3032.08,-22.00
3032.95,42.00
3033.81,31.00
3034.68,53.00
3035.54,43.00
3036.40,21.00
3037.27,42.00
3038.13,63.00
3038.99,42.00
3039.85,74.00
3040.71,53.00
3041.57,85.00
3042.43,63.00
3043.29,106.00
3044.15,53.00
3045.01,-11.00
3045.86,-11.00
3046.72,-42.00
3047.58,10.00
3048.43,85.00
3049.29,75.00
3050.14,75.00
3050.99,85.00
3051.85,-21.00
3052.70,21.00
3053.55,74.00
3054.40,31.00
3055.25,-11.00
3056.10,32.00
3056.95,42.00
3057.80,84.00
3058.65,85.00
3059.50,32.00
3060.34,-32.00
3061.19,-53.00
3062.04,0.00
3062.88,42.00
3063.73,-21.00
3064.57,0.00
3065.42,42.00
3066.26,11.00
3067.10,0.00
3067.94,21.00
3068.78,43.00
3069.63,64.00
3070.47,0.00
3071.31,21.00
3072.14,-43.00
3072.98,-21.00
3073.82,64.00
3074.66,64.00
3075.49,32.00
3076.33,53.00
3077.17,21.00
3078.00,10.00
3078.83,11.00
3079.67,84.00
3080.50,84.00
3081.33,63.00
3082.17,95.00
3083.00,42.00
3083.83,21.00
3084.66,-21.00
3085.49,-42.00
3086.32,-21.00
3087.15,63.00
3087.97,42.00
3088.80,42.00
3089.63,116.00
3090.46,74.00
3091.28,43.00
3092.11,42.00
3092.93,21.00
3093.75,-10.00
3094.58,53.00
3095.40,21.00
3096.22,10.00
3097.05,32.00
3097.87,-21.00
3098.69,32.00
3099.51,42.00
3100.33,0.00
3101.15,42.00
3101.96,42.00
3102.78,-11.00
3103.60,-32.00
3104.42,-31.00
3105.23,-11.00
3106.05,43.00
3106.86,42.00
3107.68,42.00
3108.49,32.00
3109.30,10.00
3110.12,42.00
3110.93,43.00
3111.74,-21.00
3112.55,64.00
3113.36,53.00
3114.17,64.00
3114.98,42.00
3115.79,75.00
3116.60,53.00
3117.40,85.00
3118.21,64.00
3119.02,32.00
3119.82,63.00
3120.63,21.00
3121.43,11.00
3122.24,11.00
3123.04,43.00
3123.84,74.00
3124.65,64.00
3125.45,53.00
3126.25,0.00
3127.05,21.00
3127.85,21.00
3128.65,-11.00
3129.45,-10.00
3130.25,0.00
3131.05,11.00
3131.84,32.00
3132.64,0.00
3133.44,53.00
3134.23,43.00
3135.03,0.00
3135.82,10.00
3136.62,0.00
3137.41,0.00
3138.20,21.00
3139.00,0.00
3139.79,0.00
3140.58,-10.00
3141.37,-11.00
3142.16,21.00
3142.95,21.00
3143.74,42.00
3144.53,31.00
3145.32,84.00
3146.10,64.00
3146.89,-21.00
3147.68,-10.00
3148.46,32.00
3149.25,-21.00
3150.03,21.00
3150.82,31.00
3151.60,10.00
3152.38,42.00
3153.17,21.00
3153.95,63.00
3154.73,63.00
3155.51,64.00
3156.29,63.00
3157.07,84.00
3157.85,21.00
3158.63,10.00
3159.41,42.00
3160.18,53.00
3160.96,32.00
3161.74,43.00
3162.51,22.00
3163.29,32.00
3164.06,74.00
3164.84,74.00
3165.61,21.00
3166.38,-21.00
3167.16,-22.00
3167.93,0.00
3168.70,0.00
3169.47,21.00
3170.24,53.00
3171.01,22.00
3171.78,-42.00
3172.55,-31.00
3173.32,43.00
3174.09,63.00
3174.85,-10.00
3175.62,21.00
3176.39,32.00
3177.15,21.00
3177.92,21.00
3178.68,32.00
3179.45,32.00
3180.21,53.00
3180.97,21.00
3181.73,10.00
3182.50,22.00
3183.26,0.00
3184.02,21.00
3184.78,10.00
3185.54,43.00
3186.30,42.00
3187.05,53.00
3187.81,42.00
3188.57,42.00
3189.33,43.00
3190.08,32.00
3190.84,-32.00
3191.59,-74.00
3192.35,-21.00
3193.10,11.00
3193.86,21.00
3194.61,42.00
3195.36,64.00
3196.12,10.00
3196.87,-21.00
3197.62,21.00
3198.37,43.00
3199.12,32.00
3199.87,0.00
3200.62,21.00
3201.36,32.00
3202.11,43.00
3202.86,43.00
3203.61,53.00
3204.35,0.00
3205.10,-74.00
3205.84,-42.00
3206.59,22.00
3207.33,0.00
3208.08,0.00
3208.82,11.00
3209.56,53.00
3210.30,53.00
3211.05,53.00
3211.79,-11.00
3212.53,-43.00
3213.27,-32.00
3214.01,0.00
3214.75,22.00
3215.48,10.00
3216.22,11.00
3216.96,10.00
3217.69,63.00
3218.43,43.00
3219.17,-22.00
3219.90,-32.00
3220.64,-22.00
3221.37,-32.00
3222.10,-43.00
3222.84,-21.00
3223.57,0.00
3224.30,10.00
3225.03,42.00
3225.76,22.00
3226.49,32.00
3227.22,21.00
3227.95,-10.00
3228.68,21.00
3229.41,32.00
3230.14,10.00
3230.87,-53.00
3231.59,-53.00
3232.32,-43.00
3233.04,-64.00
3233.77,-63.00
3234.49,-53.00
3235.22,-11.00
3235.94,0.00
3236.66,64.00
3237.39,64.00
3238.11,32.00
3238.83,21.00
3239.55,0.00
3240.27,-43.00
3240.99,-11.00
3241.71,53.00
3242.43,74.00
3243.15,42.00
3243.87,0.00
3244.58,64.00
3245.30,74.00
3246.02,42.00
3246.73,10.00
3247.45,10.00
3248.16,53.00
3248.88,74.00
3249.59,-10.00
3250.30,-42.00
3251.01,32.00
3251.73,43.00
3252.44,-32.00
3253.15,-32.00
3253.86,31.00
3254.57,-31.00
3255.28,-21.00
3255.99,64.00
3256.70,74.00
3257.41,0.00
3258.11,11.00
3258.82,0.00
3259.53,-42.00
3260.23,10.00
3260.94,22.00
3261.64,21.00
3262.35,43.00
3263.05,32.00
3263.76,-11.00
3264.46,-10.00
3265.16,10.00
3265.86,-32.00
3266.56,0.00
3267.26,0.00
3267.97,53.00
3268.67,64.00
3269.36,21.00
3270.06,-21.00
3270.76,10.00
3271.46,63.00
3272.16,32.00
3272.85,0.00
