RamanShift,Intensity
180.91,283.00
183.74,349.00
186.56,423.00
189.39,476.00
192.21,614.00
195.03,868.00
197.84,1155.00
200.66,1557.00
203.47,1959.00
206.28,2383.00
209.09,2690.00
211.89,3103.00
214.70,3410.00
217.50,3642.00
220.30,3748.00
223.10,3992.00
225.89,4056.00
228.69,4076.00
231.48,4109.00
234.27,4246.00
237.05,4278.00
239.84,4257.00
242.62,4183.00
245.40,4108.00
248.18,4013.00
250.96,3939.00
253.73,3854.00
256.51,3717.00
259.28,3653.00
262.05,3611.00
264.81,3547.00
267.58,3526.00
270.34,3357.00
273.10,3399.00
275.86,3452.00
278.61,3346.00
281.37,3335.00
284.12,3336.00
286.87,3357.00
289.62,3367.00
292.36,3335.00
295.11,3293.00
297.85,3304.00
300.59,3303.00
303.33,3251.00
306.06,3283.00
308.80,3251.00
311.53,3251.00
314.26,3251.00
316.99,3230.00
319.71,3145.00
322.44,3176.00
325.16,3230.00
327.88,3156.00
330.59,3145.00
333.31,3167.00
336.02,3230.00
338.73,3187.00
341.44,3187.00
344.15,3188.00
346.86,3208.00
349.56,3124.00
352.26,3177.00
354.96,3230.00
357.66,3114.00
360.35,3166.00
363.05,3198.00
365.74,3177.00
368.43,3272.00
371.12,3209.00
373.80,3187.00
376.48,3176.00
379.17,3176.00
381.85,3198.00
384.52,3209.00
387.20,3272.00
389.87,3251.00
392.54,3229.00
395.21,3166.00
397.88,3209.00
400.55,3209.00
403.21,3188.00
405.87,3177.00
408.53,3187.00
411.19,3240.00
413.84,3261.00
416.50,3272.00
419.15,3282.00
421.80,3293.00
424.45,3187.00
427.10,3188.00
429.74,3251.00
432.38,3166.00
435.02,3081.00
437.66,3114.00
440.30,3134.00
442.93,3134.00
445.56,3103.00
448.19,3188.00
450.82,3219.00
453.45,3230.00
456.07,3272.00
458.70,3261.00
461.32,3262.00
463.94,3293.00
466.55,3177.00
469.17,3167.00
471.78,3219.00
474.39,3219.00
477.00,3145.00
479.61,3135.00
482.22,3166.00
484.82,3070.00
487.42,3039.00
490.02,3124.00
492.62,3177.00
495.21,3145.00
497.81,3177.00
500.40,3135.00
502.99,3081.00
505.58,3039.00
508.17,3103.00
510.75,3081.00
513.33,3050.00
515.91,3049.00
518.49,3060.00
521.07,3103.00
523.65,3039.00
526.22,3050.00
528.79,3039.00
531.36,3103.00
533.93,3113.00
536.49,3145.00
539.06,3071.00
541.62,3007.00
544.18,2997.00
546.74,3049.00
549.30,3039.00
551.85,3039.00
554.40,3039.00
556.95,3092.00
559.50,3060.00
562.05,2997.00
564.59,2986.00
567.14,2954.00
569.68,2944.00
572.22,2954.00
574.76,2954.00
577.29,2997.00
579.83,2933.00
582.36,2891.00
584.89,2870.00
587.42,2912.00
589.95,2838.00
592.47,2838.00
594.99,2859.00
597.52,2838.00
600.04,2849.00
602.55,2891.00
605.07,2827.00
607.58,2785.00
610.09,2859.00
612.60,2869.00
615.11,2806.00
617.62,2732.00
620.12,2859.00
622.63,2827.00
625.13,2796.00
627.63,2817.00
630.13,2743.00
632.62,2658.00
635.12,2679.00
637.61,2658.00
640.10,2711.00
642.59,2732.00
645.07,2732.00
647.56,2689.00
650.04,2679.00
652.52,2700.00
655.00,2690.00
657.48,2669.00
659.96,2732.00
662.43,2700.00
664.90,2626.00
667.37,2648.00
669.84,2594.00
672.31,2626.00
674.78,2721.00
677.24,2690.00
679.70,2669.00
682.16,2637.00
684.62,2647.00
687.08,2722.00
689.53,2743.00
691.98,2721.00
694.43,2647.00
696.88,2605.00
699.33,2573.00
701.78,2594.00
704.22,2615.00
706.66,2541.00
709.10,2520.00
711.54,2552.00
713.98,2552.00
716.42,2574.00
718.85,2637.00
721.28,2732.00
723.71,2753.00
726.14,2859.00
728.57,2859.00
730.99,2763.00
733.41,2816.00
735.83,2795.00
738.25,2817.00
740.67,2764.00
743.09,2541.00
745.50,2468.00
747.91,2457.00
750.33,2436.00
752.73,2435.00
755.14,2414.00
757.55,2478.00
759.95,2446.00
762.35,2404.00
764.75,2404.00
767.15,2393.00
769.55,2372.00
771.95,2361.00
774.34,2361.00
776.73,2329.00
779.12,2287.00
781.51,2329.00
783.90,2330.00
786.28,2372.00
788.67,2341.00
791.05,2298.00
793.43,2330.00
795.80,2340.00
798.18,2330.00
800.56,2266.00
802.93,2213.00
805.30,2266.00
807.67,2319.00
810.04,2361.00
812.40,2383.00
814.77,2266.00
817.13,2171.00
819.49,2171.00
821.85,2235.00
824.21,2256.00
826.57,2277.00
828.92,2234.00
831.27,2234.00
833.63,2160.00
835.98,2128.00
838.32,2128.00
840.67,2150.00
843.01,2097.00
845.36,2096.00
847.70,2203.00
850.04,2192.00
852.37,2097.00
854.71,2128.00
857.05,2139.00
859.38,2149.00
861.71,2097.00
864.04,2075.00
866.37,2097.00
868.69,2086.00
871.02,2118.00
873.34,2097.00
875.66,2033.00
877.98,2054.00
880.30,2118.00
882.62,2044.00
884.93,2023.00
887.24,2097.00
889.55,2107.00
891.86,2118.00
894.17,2076.00
896.48,2075.00
898.78,2107.00
901.09,2107.00
903.39,2065.00
905.69,2001.00
907.99,2033.00
910.28,2033.00
912.58,2086.00
914.87,2075.00
917.16,2096.00
919.45,2033.00
921.74,1980.00
924.03,2023.00
926.31,2086.00
928.60,2012.00
930.88,1980.00
933.16,2012.00
935.44,1991.00
937.72,2012.00
939.99,1980.00
942.26,1927.00
944.54,1980.00
946.81,1970.00
949.08,2022.00
951.34,2022.00
953.61,1991.00
955.87,1980.00
958.14,1969.00
960.40,1928.00
962.66,1928.00
964.92,2022.00
967.17,2012.00
969.43,2002.00
971.68,1874.00
973.93,1842.00
976.18,1832.00
978.43,1789.00
980.68,1854.00
982.92,1843.00
985.17,1800.00
987.41,1758.00
989.65,1800.00
991.89,1874.00
994.12,1863.00
996.36,1779.00
998.59,1747.00
1000.83,1705.00
1003.06,1768.00
1005.29,1716.00
1007.51,1705.00
1009.74,1800.00
1011.97,1736.00
1014.19,1737.00
1016.41,1779.00
1018.63,1790.00
1020.85,1811.00
1023.07,1758.00
1025.28,1779.00
1027.49,1758.00
1029.71,1747.00
1031.92,1705.00
1034.13,1641.00
1036.33,1694.00
1038.54,1779.00
1040.74,1853.00
1042.95,1779.00
1045.15,1726.00
1047.35,1758.00
1049.55,1737.00
1051.74,1716.00
1053.94,1716.00
1056.13,1694.00
1058.32,1683.00
1060.51,1673.00
1062.70,1684.00
1064.89,1642.00
1067.08,1609.00
1069.26,1630.00
1071.44,1715.00
1073.63,1684.00
1075.81,1630.00
1077.98,1652.00
1080.16,1673.00
1082.34,1652.00
1084.51,1610.00
1086.68,1610.00
1088.85,1642.00
1091.02,1610.00
1093.19,1589.00
1095.35,1630.00
1097.52,1684.00
1099.68,1652.00
1101.84,1662.00
1104.00,1641.00
1106.16,1524.00
1108.32,1546.00
1110.48,1599.00
1112.63,1568.00
1114.78,1546.00
1116.93,1567.00
1119.08,1609.00
1121.23,1599.00
1123.38,1588.00
1125.52,1609.00
1127.67,1546.00
1129.81,1482.00
1131.95,1503.00
1134.09,1472.00
1136.22,1482.00
1138.36,1525.00
1140.50,1557.00
1142.63,1546.00
1144.76,1567.00
1146.89,1589.00
1149.02,1524.00
1151.15,1409.00
1153.27,1451.00
1155.40,1546.00
1157.52,1483.00
1159.64,1525.00
1161.76,1472.00
1163.88,1450.00
1165.99,1440.00
1168.11,1483.00
1170.22,1472.00
1172.34,1419.00
1174.45,1536.00
1176.56,1525.00
1178.66,1461.00
1180.77,1419.00
1182.88,1419.00
1184.98,1493.00
1187.08,1504.00
1189.18,1503.00
1191.28,1493.00
1193.38,1440.00
1195.47,1398.00
1197.57,1461.00
1199.66,1482.00
1201.75,1525.00
1203.85,1546.00
1205.93,1440.00
1208.02,1430.00
1210.11,1419.00
1212.19,1450.00
1214.28,1408.00
1216.36,1440.00
1218.44,1493.00
1220.52,1461.00
1222.59,1450.00
1224.67,1430.00
1226.74,1355.00
1228.82,1408.00
1230.89,1418.00
1232.96,1377.00
1235.03,1387.00
1237.10,1419.00
1239.16,1398.00
1241.23,1366.00
1243.29,1398.00
1245.35,1483.00
1247.41,1397.00
1249.47,1408.00
1251.53,1419.00
1253.58,1408.00
1255.64,1376.00
1257.69,1387.00
1259.74,1345.00
1261.79,1291.00
1263.84,1292.00
1265.89,1345.00
1267.93,1376.00
1269.98,1366.00
1272.02,1355.00
1274.06,1345.00
1276.10,1408.00
1278.14,1377.00
1280.18,1313.00
1282.22,1281.00
1284.25,1324.00
1286.28,1291.00
1288.32,1281.00
1290.35,1271.00
1292.38,1238.00
1294.40,1270.00
1296.43,1260.00
1298.46,1303.00
1300.48,1292.00
1302.50,1228.00
1304.52,1207.00
1306.54,1260.00
1308.56,1334.00
1310.58,1355.00
1312.59,1334.00
1314.60,1260.00
1316.62,1344.00
1318.63,1398.00
1320.64,1377.00
1322.65,1334.00
1324.65,1409.00
1326.66,1461.00
1328.66,1441.00
1330.66,1377.00
1332.67,1376.00
1334.67,1398.00
1336.66,1429.00
1338.66,1430.00
1340.66,1387.00
1342.65,1397.00
1344.65,1376.00
1346.64,1344.00
1348.63,1313.00
1350.62,1271.00
1352.60,1228.00
1354.59,1228.00
1356.57,1218.00
1358.56,1207.00
1360.54,1186.00
1362.52,1218.00
1364.50,1186.00
1366.48,1186.00
1368.46,1186.00
1370.43,1207.00
1372.41,1218.00
1374.38,1250.00
1376.35,1271.00
1378.32,1281.00
1380.29,1239.00
1382.25,1186.00
1384.22,1229.00
1386.18,1239.00
1388.15,1176.00
1390.11,1123.00
1392.07,1154.00
1394.03,1144.00
1395.99,1164.00
1397.94,1112.00
1399.90,1154.00
1401.85,1143.00
1403.80,1207.00
1405.76,1228.00
1407.71,1218.00
1409.65,1186.00
1411.60,1144.00
1413.55,1143.00
1415.49,1154.00
1417.44,1112.00
1419.38,1112.00
1421.32,1101.00
1423.26,1037.00
1425.19,1101.00
1427.13,1133.00
1429.07,1059.00
1431.00,1123.00
1432.93,1144.00
1434.86,1080.00
1436.79,1059.00
1438.72,1102.00
1440.65,1102.00
1442.57,1059.00
1444.50,1091.00
1446.42,1080.00
1448.34,1091.00
1450.26,1080.00
1452.18,1059.00
1454.10,1080.00
1456.02,1027.00
1457.93,1038.00
1459.85,1048.00
1461.76,1102.00
1463.67,1122.00
1465.58,1122.00
1467.49,1112.00
1469.40,1101.00
1471.31,1048.00
1473.21,1027.00
1475.11,1081.00
1477.02,1090.00
1478.92,1070.00
1480.82,1037.00
1482.72,1048.00
1484.61,1049.00
1486.51,1049.00
1488.40,995.00
1490.30,985.00
1492.19,974.00
1494.08,1059.00
1495.97,1017.00
1497.86,1027.00
1499.74,1048.00
1501.63,1027.00
1503.51,995.00
1505.40,1017.00
1507.28,963.00
1509.16,974.00
1511.04,1027.00
1512.92,1059.00
1514.79,1006.00
1516.67,995.00
1518.54,1016.00
1520.42,1038.00
1522.29,996.00
1524.16,964.00
1526.03,985.00
1527.89,1017.00
1529.76,1048.00
1531.63,1028.00
1533.49,984.00
1535.35,953.00
1537.21,985.00
1539.07,964.00
1540.93,975.00
1542.79,943.00
1544.65,953.00
1546.50,974.00
1548.36,942.00
1550.21,943.00
1552.06,932.00
1553.91,931.00
1555.76,890.00
1557.61,911.00
1559.45,922.00
1561.30,932.00
1563.14,943.00
1564.98,921.00
1566.82,964.00
1568.67,911.00
1570.50,879.00
1572.34,911.00
1574.18,942.00
1576.01,975.00
1577.85,921.00
1579.68,868.00
1581.51,869.00
1583.34,911.00
1585.17,890.00
1587.00,837.00
1588.82,879.00
1590.65,878.00
1592.47,847.00
1594.30,889.00
1596.12,921.00
1597.94,900.00
1599.76,868.00
1601.57,836.00
1603.39,857.00
1605.21,900.00
1607.02,889.00
1608.83,847.00
1610.64,847.00
1612.45,868.00
1614.26,848.00
1616.07,868.00
1617.88,836.00
1619.68,858.00
1621.49,911.00
1623.29,847.00
1625.09,901.00
1626.89,911.00
1628.69,890.00
1630.49,847.00
1632.29,805.00
1634.08,805.00
1635.88,795.00
1637.67,794.00
1639.46,762.00
1641.25,773.00
1643.04,815.00
1644.83,837.00
1646.62,848.00
1648.41,826.00
1650.19,815.00
1651.97,826.00
1653.76,837.00
1655.54,868.00
1657.32,826.00
1659.10,815.00
1660.88,763.00
1662.65,783.00
1664.43,794.00
1666.20,773.00
1667.97,805.00
1669.75,816.00
1671.52,752.00
1673.29,721.00
1675.05,741.00
1676.82,762.00
1678.59,783.00
1680.35,741.00
1682.11,773.00
1683.88,783.00
1685.64,763.00
1687.40,752.00
1689.16,763.00
1690.91,699.00
1692.67,698.00
1694.42,742.00
1696.18,763.00
1697.93,720.00
1699.68,678.00
1701.43,710.00
1703.18,731.00
1704.93,784.00
1706.68,752.00
1708.42,710.00
1710.17,688.00
1711.91,699.00
1713.65,699.00
1715.39,699.00
1717.13,689.00
1718.87,699.00
1720.61,710.00
1722.35,720.00
1724.08,699.00
1725.81,689.00
1727.55,752.00
1729.28,710.00
1731.01,720.00
1732.74,699.00
1734.47,688.00
1736.19,699.00
1737.92,657.00
1739.64,614.00
1741.37,593.00
1743.09,657.00
1744.81,636.00
1746.53,646.00
1748.25,657.00
1749.97,625.00
1751.68,614.00
1753.40,614.00
1755.11,646.00
1756.83,636.00
1758.54,625.00
1760.25,688.00
1761.96,710.00
1763.67,625.00
1765.38,635.00
1767.08,699.00
1768.79,667.00
1770.49,667.00
1772.19,604.00
1773.90,593.00
1775.60,614.00
1777.30,614.00
1778.99,668.00
1780.69,646.00
1782.39,635.00
1784.08,625.00
1785.78,646.00
1787.47,572.00
1789.16,657.00
1790.85,636.00
1792.54,604.00
1794.23,625.00
1795.91,667.00
1797.60,635.00
1799.28,614.00
1800.97,614.00
1802.65,635.00
1804.33,603.00
1806.01,572.00
1807.69,551.00
1809.37,551.00
1811.05,551.00
1812.72,571.00
1814.40,562.00
1816.07,540.00
1817.74,540.00
1819.41,562.00
1821.08,583.00
1822.75,656.00
1824.42,635.00
1826.09,635.00
1827.75,625.00
1829.42,635.00
1831.08,625.00
1832.74,551.00
1834.40,603.00
1836.06,614.00
1837.72,615.00
1839.38,571.00
1841.04,551.00
1842.69,582.00
1844.35,551.00
1846.00,572.00
1847.65,540.00
1849.30,519.00
1850.95,530.00
1852.60,530.00
1854.25,550.00
1855.90,540.00
1857.54,562.00
1859.19,572.00
1860.83,571.00
1862.47,529.00
1864.12,508.00
1865.76,519.00
1867.40,519.00
1869.03,519.00
1870.67,550.00
1872.31,562.00
1873.94,561.00
1875.57,550.00
1877.21,540.00
1878.84,518.00
1880.47,508.00
1882.10,509.00
1883.73,529.00
1885.35,509.00
1886.98,519.00
1888.61,509.00
1890.23,508.00
1891.85,508.00
1893.47,519.00
1895.09,582.00
1896.71,529.00
1898.33,540.00
1899.95,487.00
1901.57,498.00
1903.18,509.00
1904.80,487.00
1906.41,487.00
1908.02,487.00
1909.63,508.00
1911.24,561.00
1912.85,519.00
1914.46,509.00
1916.07,466.00
1917.67,466.00
1919.28,456.00
1920.88,444.00
1922.48,403.00
1924.08,424.00
1925.68,466.00
1927.28,466.00
1928.88,466.00
1930.48,477.00
1932.07,498.00
1933.67,529.00
1935.26,487.00
1936.86,477.00
1938.45,508.00
1940.04,498.00
1941.63,466.00
1943.22,508.00
1944.80,508.00
1946.39,424.00
1947.98,434.00
1949.56,434.00
1951.14,403.00
1952.73,445.00
1954.31,455.00
1955.89,434.00
1957.47,424.00
1959.05,434.00
1960.62,423.00
1962.20,477.00
1963.77,487.00
1965.35,424.00
1966.92,434.00
1968.49,445.00
1970.06,413.00
1971.63,455.00
1973.20,456.00
1974.77,455.00
1976.34,403.00
1977.90,339.00
1979.47,434.00
1981.03,455.00
1982.59,434.00
1984.15,434.00
1985.71,434.00
1987.27,434.00
1988.83,444.00
1990.39,455.00
1991.94,413.00
1993.50,445.00
1995.05,444.00
1996.61,456.00
1998.16,466.00
1999.71,444.00
2001.26,392.00
2002.81,392.00
2004.36,413.00
2005.91,444.00
2007.45,444.00
2009.00,444.00
2010.54,456.00
2012.08,445.00
2013.62,403.00
2015.17,403.00
2016.71,423.00
2018.24,435.00
2019.78,445.00
2021.32,434.00
2022.85,413.00
2024.39,360.00
2025.92,381.00
2027.46,424.00
2028.99,445.00
2030.52,424.00
2032.05,371.00
2033.58,391.00
2035.10,413.00
2036.63,392.00
2038.16,339.00
2039.68,423.00
2041.21,413.00
2042.73,402.00
2044.25,403.00
2045.77,402.00
2047.29,381.00
2048.81,318.00
2050.33,360.00
2051.84,381.00
2053.36,423.00
2054.87,403.00
2056.39,392.00
2057.90,360.00
2059.41,360.00
2060.92,349.00
2062.43,360.00
2063.94,360.00
2065.45,339.00
2066.95,296.00
2068.46,392.00
2069.96,403.00
2071.47,381.00
2072.97,360.00
2074.47,382.00
2075.97,349.00
2077.47,360.00
2078.97,360.00
2080.47,392.00
2081.96,370.00
2083.46,349.00
2084.95,360.00
2086.45,339.00
2087.94,318.00
2089.43,328.00
2090.92,371.00
2092.41,371.00
2093.90,286.00
2095.39,297.00
2096.88,360.00
2098.36,339.00
2099.85,307.00
2101.33,328.00
2102.81,360.00
2104.30,339.00
2105.78,382.00
2107.26,360.00
2108.74,328.00
2110.21,338.00
2111.69,317.00
2113.17,297.00
2114.64,296.00
2116.12,360.00
2117.59,370.00
2119.06,339.00
2120.53,296.00
2122.00,318.00
2123.47,339.00
2124.94,329.00
2126.41,317.00
2127.87,339.00
2129.34,296.00
2130.80,275.00
2132.27,275.00
2133.73,329.00
2135.19,318.00
2136.65,296.00
2138.11,307.00
2139.57,297.00
2141.03,296.00
2142.48,349.00
2143.94,329.00
2145.39,318.00
2146.85,296.00
2148.30,296.00
2149.75,329.00
2151.20,285.00
2152.65,307.00
2154.10,307.00
2155.55,297.00
2157.00,328.00
2158.44,286.00
2159.89,297.00
2161.33,297.00
2162.78,297.00
2164.22,265.00
2165.66,275.00
2167.10,275.00
2168.54,254.00
2169.98,318.00
2171.42,318.00
2172.85,328.00
2174.29,297.00
2175.72,254.00
2177.16,265.00
2178.59,286.00
2180.02,296.00
2181.45,264.00
2182.88,212.00
2184.31,265.00
2185.74,286.00
2187.17,285.00
2188.59,297.00
2190.02,318.00
2191.44,297.00
2192.87,317.00
2194.29,318.00
2195.71,276.00
2197.13,285.00
2198.55,297.00
2199.97,297.00
2201.39,350.00
2202.81,339.00
2204.22,296.00
2205.64,276.00
2207.05,244.00
2208.46,276.00
2209.88,255.00
2211.29,233.00
2212.70,254.00
2214.11,276.00
2215.52,255.00
2216.92,275.00
2218.33,254.00
2219.74,233.00
2221.14,275.00
2222.54,264.00
2223.95,275.00
2225.35,276.00
2226.75,254.00
2228.15,296.00
2229.55,264.00
2230.95,255.00
2232.35,254.00
2233.74,254.00
2235.14,264.00
2236.53,286.00
2237.93,254.00
2239.32,254.00
2240.71,275.00
2242.10,275.00
2243.49,275.00
2244.88,286.00
2246.27,264.00
2247.66,233.00
2249.04,244.00
2250.43,190.00
2251.81,255.00
2253.20,254.00
2254.58,233.00
2255.96,297.00
2257.34,233.00
2258.72,222.00
2260.10,233.00
2261.48,223.00
2262.86,212.00
2264.23,212.00
2265.61,223.00
2266.98,233.00
2268.36,191.00
2269.73,180.00
2271.10,201.00
2272.47,190.00
2273.84,276.00
2275.21,286.00
2276.58,275.00
2277.95,212.00
2279.31,201.00
2280.68,222.00
2282.05,233.00
2283.41,190.00
2284.77,211.00
2286.13,244.00
2287.50,296.00
2288.86,233.00
2290.22,212.00
2291.57,244.00
2292.93,254.00
2294.29,254.00
2295.64,233.00
2297.00,244.00
2298.35,243.00
2299.71,243.00
2301.06,222.00
2302.41,212.00
2303.76,202.00
2305.11,212.00
2306.46,233.00
2307.81,233.00
2309.15,212.00
2310.50,254.00
2311.84,243.00
2313.19,212.00
2314.53,255.00
2315.87,201.00
2317.22,169.00
2318.56,212.00
2319.90,212.00
2321.24,170.00
2322.57,169.00
2323.91,159.00
2325.25,148.00
2326.58,190.00
2327.92,254.00
2329.25,202.00
2330.58,222.00
2331.91,254.00
2333.25,233.00
2334.58,202.00
2335.90,212.00
2337.23,222.00
2338.56,170.00
2339.89,191.00
2341.21,254.00
2342.54,254.00
2343.86,233.00
2345.19,212.00
2346.51,212.00
2347.83,212.00
2349.15,212.00
2350.47,191.00
2351.79,222.00
2353.11,233.00
2354.42,233.00
2355.74,212.00
2357.06,190.00
2358.37,180.00
2359.68,212.00
2361.00,254.00
2362.31,233.00
2363.62,169.00
2364.93,212.00
2366.24,233.00
2367.55,233.00
2368.86,191.00
2370.16,159.00
2371.47,148.00
2372.77,191.00
2374.08,169.00
2375.38,137.00
2376.68,128.00
2377.98,138.00
2379.29,159.00
2380.59,170.00
2381.88,180.00
2383.18,180.00
2384.48,169.00
2385.78,212.00
2387.07,190.00
2388.37,170.00
2389.66,180.00
2390.95,191.00
2392.25,169.00
2393.54,170.00
2394.83,148.00
2396.12,169.00
2397.41,180.00
2398.70,212.00
2399.98,191.00
2401.27,190.00
2402.55,212.00
2403.84,169.00
2405.12,169.00
2406.41,201.00
2407.69,190.00
2408.97,212.00
2410.25,233.00
2411.53,159.00
2412.81,138.00
2414.09,138.00
2415.36,180.00
2416.64,190.00
2417.91,169.00
2419.19,169.00
2420.46,191.00
2421.74,158.00
2423.01,170.00
2424.28,212.00
2425.55,191.00
2426.82,190.00
2428.09,190.00
2429.36,212.00
2430.62,191.00
2431.89,148.00
2433.15,169.00
2434.42,180.00
2435.68,159.00
2436.94,158.00
2438.21,148.00
2439.47,169.00
2440.73,169.00
2441.99,159.00
2443.25,106.00
2444.51,138.00
2445.76,202.00
2447.02,202.00
2448.27,191.00
2449.53,201.00
2450.78,202.00
2452.03,170.00
2453.29,159.00
2454.54,180.00
2455.79,169.00
2457.04,158.00
2458.29,191.00
2459.54,170.00
2460.78,127.00
2462.03,127.00
2463.27,106.00
2464.52,127.00
2465.76,148.00
2467.01,148.00
2468.25,191.00
2469.49,170.00
2470.73,159.00
2471.97,127.00
2473.21,117.00
2474.45,148.00
2475.69,149.00
2476.92,148.00
2478.16,127.00
2479.39,191.00
2480.63,191.00
2481.86,149.00
2483.09,180.00
2484.32,159.00
2485.56,127.00
2486.79,190.00
2488.02,159.00
2489.24,127.00
2490.47,169.00
2491.70,148.00
2492.92,159.00
2494.15,116.00
2495.37,148.00
2496.60,138.00
2497.82,138.00
2499.04,149.00
2500.26,148.00
2501.48,149.00
2502.70,127.00
2503.92,148.00
2505.14,138.00
2506.36,148.00
2507.58,148.00
2508.79,128.00
2510.01,170.00
2511.22,170.00
2512.43,127.00
2513.64,127.00
2514.86,127.00
2516.07,190.00
2517.28,127.00
2518.49,138.00
2519.70,127.00
2520.90,148.00
2522.11,159.00
2523.32,138.00
2524.52,127.00
2525.73,105.00
2526.93,116.00
2528.13,117.00
2529.33,106.00
2530.54,117.00
2531.74,149.00
2532.94,128.00
2534.14,117.00
2535.33,127.00
2536.53,127.00
2537.73,149.00
2538.92,85.00
2540.12,74.00
2541.31,74.00
2542.51,106.00
2543.70,106.00
2544.89,95.00
2546.08,106.00
2547.27,127.00
2548.46,117.00
2549.65,96.00
2550.84,148.00
2552.03,127.00
2553.21,106.00
2554.40,105.00
2555.58,127.00
2556.77,148.00
2557.95,116.00
2559.13,85.00
2560.31,106.00
2561.50,127.00
2562.68,116.00
2563.85,116.00
2565.03,148.00
2566.21,159.00
2567.39,138.00
2568.56,170.00
2569.74,170.00
2570.91,85.00
2572.09,117.00
2573.26,106.00
2574.43,106.00
2575.61,138.00
2576.78,127.00
2577.95,127.00
2579.12,106.00
2580.29,106.00
2581.45,159.00
2582.62,117.00
2583.79,95.00
2584.95,85.00
2586.12,106.00
2587.28,148.00
2588.44,95.00
2589.61,149.00
2590.77,148.00
2591.93,116.00
2593.09,159.00
2594.25,117.00
2595.41,96.00
2596.56,137.00
2597.72,170.00
2598.88,148.00
2600.03,148.00
2601.19,117.00
2602.34,85.00
2603.50,84.00
2604.65,85.00
2605.80,106.00
2606.95,116.00
2608.10,117.00
2609.25,128.00
2610.40,127.00
2611.55,138.00
2612.70,116.00
2613.84,96.00
2614.99,96.00
2616.13,106.00
2617.28,127.00
2618.42,149.00
2619.56,85.00
2620.71,96.00
2621.85,85.00
2622.99,64.00
2624.13,85.00
2625.27,63.00
2626.40,106.00
2627.54,95.00
2628.68,95.00
2629.81,127.00
2630.95,96.00
2632.08,95.00
2633.22,85.00
2634.35,95.00
2635.48,95.00
2636.61,127.00
2637.74,148.00
2638.87,106.00
2640.00,21.00
2641.13,64.00
2642.26,74.00
2643.39,96.00
2644.51,117.00
2645.64,85.00
2646.76,95.00
2647.89,106.00
2649.01,117.00
2650.13,106.00
2651.25,85.00
2652.38,85.00
2653.50,74.00
2654.62,84.00
2655.73,43.00
2656.85,64.00
2657.97,63.00
2659.09,74.00
2660.20,95.00
2661.32,85.00
2662.43,42.00
2663.55,85.00
2664.66,63.00
2665.77,85.00
2666.88,106.00
2667.99,106.00
2669.10,106.00
2670.21,106.00
2671.32,106.00
2672.43,84.00
2673.54,53.00
2674.64,64.00
2675.75,127.00
2676.85,85.00
2677.96,85.00
2679.06,43.00
2680.16,64.00
2681.26,96.00
2682.37,74.00
2683.47,106.00
2684.57,96.00
2685.66,106.00
2686.76,138.00
2687.86,106.00
2688.96,64.00
2690.05,64.00
2691.15,106.00
2692.24,74.00
2693.34,96.00
2694.43,85.00
2695.52,74.00
2696.62,42.00
2697.71,85.00
2698.80,127.00
2699.89,85.00
2700.98,95.00
2702.06,53.00
2703.15,53.00
2704.24,85.00
2705.32,106.00
2706.41,95.00
2707.49,85.00
2708.58,75.00
2709.66,84.00
2710.74,74.00
2711.83,95.00
2712.91,96.00
2713.99,74.00
2715.07,42.00
2716.15,84.00
2717.22,85.00
2718.30,42.00
2719.38,138.00
2720.45,106.00
2721.53,85.00
2722.60,43.00
2723.68,64.00
2724.75,96.00
2725.82,96.00
2726.89,95.00
2727.97,64.00
2729.04,21.00
2730.11,95.00
2731.17,106.00
2732.24,84.00
2733.31,106.00
2734.38,85.00
2735.44,74.00
2736.51,64.00
2737.57,43.00
2738.64,53.00
2739.70,84.00
2740.76,63.00
2741.82,85.00
2742.89,95.00
2743.95,64.00
2745.01,21.00
2746.07,64.00
2747.12,85.00
2748.18,85.00
2749.24,85.00
2750.29,117.00
2751.35,85.00
2752.40,64.00
2753.46,127.00
2754.51,117.00
2755.57,85.00
2756.62,42.00
2757.67,0.00
2758.72,21.00
2759.77,53.00
2760.82,42.00
2761.87,84.00
2762.91,64.00
2763.96,63.00
2765.01,95.00
2766.05,42.00
2767.10,74.00
2768.14,85.00
2769.19,53.00
2770.23,63.00
2771.27,84.00
2772.31,42.00
2773.35,10.00
2774.40,84.00
2775.43,127.00
2776.47,85.00
2777.51,85.00
2778.55,84.00
2779.59,53.00
2780.62,32.00
2781.66,42.00
2782.69,84.00
2783.73,42.00
2784.76,52.00
2785.79,96.00
2786.82,85.00
2787.85,84.00
2788.89,85.00
2789.92,74.00
2790.94,64.00
2791.97,84.00
2793.00,84.00
2794.03,85.00
2795.05,106.00
2796.08,84.00
2797.11,42.00
2798.13,64.00
2799.15,85.00
2800.18,32.00
2801.20,53.00
2802.22,64.00
2803.24,43.00
2804.26,63.00
2805.28,43.00
2806.30,85.00
2807.32,53.00
2808.34,42.00
2809.35,74.00
2810.37,43.00
2811.39,21.00
2812.40,85.00
2813.41,74.00
2814.43,74.00
2815.44,63.00
2816.45,64.00
2817.46,127.00
2818.48,64.00
2819.49,42.00
2820.49,85.00
2821.50,85.00
2822.51,53.00
2823.52,64.00
2824.53,63.00
2825.53,43.00
2826.54,85.00
2827.54,85.00
2828.55,53.00
2829.55,52.00
2830.55,63.00
2831.55,85.00
2832.56,21.00
2833.56,11.00
2834.56,21.00
2835.56,63.00
2836.56,52.00
2837.55,43.00
2838.55,85.00
2839.55,64.00
2840.54,-11.00
2841.54,21.00
2842.53,63.00
2843.53,128.00
2844.52,64.00
2845.51,53.00
2846.51,64.00
2847.50,95.00
2848.49,96.00
2849.48,32.00
2850.47,21.00
2851.46,42.00
2852.45,32.00
2853.43,64.00
2854.42,74.00
2855.41,53.00
2856.39,63.00
2857.38,64.00
2858.36,43.00
2859.34,63.00
2860.33,84.00
2861.31,64.00
2862.29,63.00
2863.27,85.00
2864.25,84.00
2865.23,63.00
2866.21,21.00
2867.19,53.00
2868.17,85.00
2869.14,85.00
2870.12,53.00
2871.09,0.00
2872.07,21.00
2873.04,42.00
2874.02,64.00
2874.99,42.00
2875.96,43.00
2876.93,21.00
2877.91,52.00
2878.88,32.00
2879.85,10.00
2880.82,63.00
2881.78,63.00
2882.75,85.00
2883.72,85.00
2884.69,85.00
2885.65,63.00
2886.62,63.00
2887.58,95.00
2888.55,63.00
2889.51,52.00
2890.47,53.00
2891.43,74.00
2892.39,43.00
2893.36,42.00
2894.31,74.00
2895.27,84.00
2896.23,85.00
2897.19,84.00
2898.15,63.00
2899.11,53.00
2900.06,75.00
2901.02,64.00
2901.97,21.00
2902.93,42.00
2903.88,63.00
2904.83,42.00
2905.79,64.00
2906.74,53.00
2907.69,32.00
2908.64,53.00
2909.59,31.00
2910.54,52.00
2911.49,-21.00
2912.43,21.00
2913.38,74.00
2914.33,43.00
2915.27,63.00
2916.22,64.00
2917.16,95.00
2918.11,85.00
2919.05,95.00
2919.99,63.00
2920.94,43.00
2921.88,63.00
2922.82,64.00
2923.76,63.00
2924.70,52.00
2925.64,0.00
2926.58,0.00
2927.51,43.00
2928.45,43.00
2929.39,21.00
2930.32,21.00
2931.26,11.00
2932.19,43.00
2933.13,74.00
2934.06,64.00
2934.99,32.00
2935.92,43.00
2936.86,64.00
2937.79,53.00
2938.72,32.00
2939.65,0.00
2940.57,53.00
2941.50,74.00
2942.43,53.00
2943.36,21.00
2944.28,22.00
2945.21,21.00
2946.13,63.00
2947.06,43.00
2947.98,10.00
2948.91,43.00
2949.83,42.00
2950.75,42.00
2951.67,53.00
2952.59,74.00
2953.51,64.00
2954.43,96.00
2955.35,74.00
2956.27,21.00
2957.19,42.00
2958.10,53.00
2959.02,64.00
2959.94,64.00
2960.85,64.00
2961.77,21.00
2962.68,42.00
2963.59,42.00
2964.51,32.00
2965.42,0.00
2966.33,42.00
2967.24,21.00
2968.15,53.00
2969.06,43.00
2969.97,21.00
2970.88,-21.00
2971.78,42.00
2972.69,32.00
2973.60,42.00
2974.50,42.00
2975.41,42.00
2976.31,85.00
2977.22,85.00
2978.12,42.00
2979.02,21.00
2979.93,42.00
2980.83,42.00
2981.73,42.00
2982.63,43.00
2983.53,22.00
2984.43,42.00
2985.33,42.00
2986.22,21.00
2987.12,32.00
2988.02,52.00
2988.91,-10.00
2989.81,21.00
2990.70,32.00
2991.60,10.00
2992.49,21.00
2993.38,-11.00
2994.28,21.00
2995.17,53.00
2996.06,85.00
2996.95,53.00
2997.84,0.00
2998.73,10.00
2999.62,10.00
3000.51,0.00
3001.40,43.00
3002.28,21.00
3003.17,42.00
3004.05,117.00
3004.94,149.00
3005.82,116.00
3006.71,63.00
3007.59,43.00
3008.47,11.00
3009.36,11.00
3010.24,-10.00
3011.12,11.00
3012.00,84.00
3012.88,84.00
3013.76,64.00
3014.64,84.00
3015.51,64.00
3016.39,42.00
3017.27,42.00
3018.14,21.00
3019.02,42.00
3019.89,42.00
3020.77,0.00
3021.64,0.00
3022.52,0.00
3023.39,42.00
3024.26,64.00
3025.13,32.00
3026.00,0.00
3026.87,-21.00
3027.74,0.00
3028.61,0.00
3029.48,21.00
3030.35,42.00
3031.21,21.00
3032.08,42.00
3032.95,22.00
3033.81,53.00
3034.68,10.00
3035.54,11.00
3036.40,32.00
3037.27,0.00
3038.13,43.00
3038.99,0.00
3039.85,10.00
3040.71,53.00
3041.57,43.00
3042.43,74.00
3043.29,85.00
3044.15,21.00
3045.01,0.00
3045.86,63.00
3046.72,75.00
3047.58,42.00
3048.43,-21.00
3049.29,10.00
3050.14,42.00
3050.99,21.00
3051.85,32.00
3052.70,43.00
3053.55,75.00
3054.40,63.00
3055.25,-10.00
3056.10,21.00
3056.95,0.00
3057.80,0.00
3058.65,0.00
3059.50,63.00
3060.34,106.00
3061.19,63.00
3062.04,-10.00
3062.88,10.00
3063.73,43.00
3064.57,63.00
3065.42,31.00
3066.26,43.00
3067.10,42.00
3067.94,0.00
3068.78,10.00
3069.63,74.00
3070.47,106.00
3071.31,74.00
3072.14,-21.00
3072.98,21.00
3073.82,63.00
3074.66,63.00
3075.49,11.00
3076.33,10.00
3077.17,10.00
3078.00,0.00
3078.83,43.00
3079.67,43.00
3080.50,31.00
3081.33,43.00
3082.17,116.00
3083.00,84.00
3083.83,31.00
3084.66,63.00
3085.49,22.00
3086.32,42.00
3087.15,0.00
3087.97,11.00
3088.80,42.00
3089.63,11.00
3090.46,21.00
3091.28,11.00
3092.11,52.00
3092.93,32.00
3093.75,43.00
3094.58,84.00
3095.40,74.00
3096.22,52.00
3097.05,-10.00
3097.87,21.00
3098.69,0.00
3099.51,0.00
3100.33,0.00
3101.15,-21.00
3101.96,0.00
3102.78,21.00
3103.60,-11.00
3104.42,43.00
3105.23,43.00
3106.05,75.00
3106.86,64.00
3107.68,42.00
3108.49,84.00
3109.30,75.00
3110.12,0.00
3110.93,-11.00
3111.74,11.00
3112.55,32.00
3113.36,53.00
3114.17,21.00
3114.98,42.00
3115.79,42.00
3116.60,63.00
3117.40,0.00
3118.21,21.00
3119.02,42.00
3119.82,43.00
3120.63,-11.00
3121.43,0.00
3122.24,42.00
3123.04,53.00
3123.84,74.00
3124.65,21.00
3125.45,53.00
3126.25,32.00
3127.05,0.00
3127.85,63.00
3128.65,74.00
3129.45,21.00
3130.25,21.00
3131.05,53.00
3131.84,85.00
3132.64,53.00
3133.44,-21.00
3134.23,42.00
3135.03,95.00
3135.82,21.00
3136.62,0.00
3137.41,10.00
3138.20,0.00
3139.00,21.00
3139.79,43.00
3140.58,42.00
3141.37,42.00
3142.16,21.00
3142.95,42.00
3143.74,43.00
3144.53,11.00
3145.32,21.00
3146.10,32.00
3146.89,21.00
3147.68,10.00
3148.46,-10.00
3149.25,-32.00
3150.03,-43.00
3150.82,-32.00
3151.60,-10.00
3152.38,0.00
3153.17,0.00
3153.95,0.00
3154.73,0.00
3155.51,0.00
3156.29,-22.00
3157.07,0.00
3157.85,43.00
3158.63,22.00
3159.41,-21.00
3160.18,21.00
3160.96,63.00
3161.74,42.00
3162.51,-21.00
3163.29,-11.00
3164.06,0.00
3164.84,21.00
3165.61,64.00
3166.38,21.00
3167.16,-11.00
3167.93,0.00
3168.70,-42.00
3169.47,0.00
3170.24,21.00
3171.01,21.00
3171.78,43.00
3172.55,0.00
3173.32,0.00
3174.09,43.00
3174.85,85.00
3175.62,22.00
3176.39,11.00
3177.15,11.00
3177.92,53.00
3178.68,32.00
3179.45,21.00
3180.21,21.00
3180.97,31.00
3181.73,21.00
3182.50,53.00
3183.26,53.00
3184.02,42.00
3184.78,-32.00
3185.54,21.00
3186.30,32.00
3187.05,-21.00
3187.81,0.00
3188.57,-21.00
3189.33,21.00
3190.08,43.00
3190.84,0.00
3191.59,-22.00
3192.35,-43.00
3193.10,-22.00
3193.86,11.00
3194.61,10.00
3195.36,0.00
3196.12,-42.00
3196.87,0.00
3197.62,21.00
3198.37,10.00
3199.12,42.00
3199.87,32.00
3200.62,0.00
3201.36,0.00
3202.11,21.00
3202.86,0.00
3203.61,10.00
3204.35,32.00
3205.10,11.00
3205.84,0.00
3206.59,-11.00
3207.33,0.00
3208.08,-10.00
3208.82,0.00
3209.56,10.00
3210.30,0.00
3211.05,11.00
3211.79,0.00
3212.53,32.00
3213.27,0.00
3214.01,-21.00
3214.75,-42.00
3215.48,11.00
3216.22,0.00
3216.96,-11.00
3217.69,52.00
3218.43,32.00
3219.17,-21.00
3219.90,-10.00
3220.64,-21.00
3221.37,0.00
3222.10,21.00
3222.84,11.00
3223.57,0.00
3224.30,11.00
3225.03,32.00
3225.76,-21.00
3226.49,-63.00
3227.22,-32.00
3227.95,0.00
3228.68,0.00
3229.41,0.00
3230.14,0.00
3230.87,-21.00
3231.59,-11.00
3232.32,-22.00
3233.04,21.00
3233.77,42.00
3234.49,0.00
3235.22,31.00
3235.94,21.00
3236.66,21.00
3237.39,21.00
3238.11,32.00
3238.83,0.00
3239.55,0.00
3240.27,11.00
3240.99,-21.00
3241.71,-64.00
3242.43,-74.00
3243.15,-32.00
3243.87,0.00
3244.58,53.00
3245.30,85.00
3246.02,32.00
3246.73,22.00
3247.45,32.00
3248.16,-11.00
3248.88,11.00
3249.59,0.00
3250.30,0.00
3251.01,-10.00
3251.73,-11.00
3252.44,-11.00
3253.15,64.00
3253.86,21.00
3254.57,11.00
3255.28,21.00
3255.99,0.00
3256.70,0.00
3257.41,-21.00
3258.11,32.00
3258.82,21.00
3259.53,11.00
3260.23,-10.00
3260.94,0.00
3261.64,43.00
3262.35,21.00
3263.05,22.00
3263.76,-11.00
3264.46,-32.00
3265.16,74.00
3265.86,85.00
3266.56,53.00
3267.26,32.00
3267.97,11.00
3268.67,-10.00
3269.36,11.00
3270.06,53.00
3270.76,43.00
3271.46,42.00
3272.16,22.00
3272.85,0.00
