RamanShift,Intensity
180.91,214.00
183.74,275.00
186.56,275.00
189.39,402.00
192.21,603.00
195.03,836.00
197.84,1080.00
200.66,1472.00
203.47,1885.00
206.28,2171.00
209.09,2468.00
211.89,2881.00
214.70,3176.00
217.50,3166.00
220.30,3262.00
223.10,3420.00
225.89,3505.00
228.69,3548.00
231.48,3696.00
234.27,3675.00
237.05,3706.00
239.84,3728.00
242.62,3632.00
245.40,3537.00
248.18,3547.00
250.96,3601.00
253.73,3526.00
256.51,3431.00
259.28,3304.00
262.05,3357.00
264.81,3325.00
267.58,3335.00
270.34,3388.00
273.10,3335.00
275.86,3293.00
278.61,3304.00
281.37,3261.00
284.12,3155.00
286.87,3123.00
289.62,3082.00
292.36,3082.00
295.11,3124.00
297.85,3092.00
300.59,3208.00
303.33,3155.00
306.06,3145.00
308.80,3177.00
311.53,3188.00
314.26,3304.00
316.99,3230.00
319.71,3039.00
322.44,3092.00
325.16,3176.00
327.88,3134.00
330.59,3124.00
333.31,3176.00
336.02,3102.00
338.73,2997.00
341.44,3039.00
344.15,3145.00
346.86,3124.00
349.56,3071.00
352.26,3050.00
354.96,3039.00
357.66,3040.00
360.35,3061.00
363.05,3123.00
365.74,3114.00
368.43,3092.00
371.12,3177.00
373.80,3240.00
376.48,3240.00
379.17,3262.00
381.85,3325.00
384.52,3357.00
387.20,3315.00
389.87,3293.00
392.54,3272.00
395.21,3304.00
397.88,3336.00
400.55,3399.00
403.21,3367.00
405.87,3293.00
408.53,3219.00
411.19,3156.00
413.84,3272.00
416.50,3240.00
419.15,3230.00
421.80,3325.00
424.45,3293.00
427.10,3261.00
429.74,3272.00
432.38,3240.00
435.02,3220.00
437.66,3220.00
440.30,3167.00
442.93,3240.00
445.56,3251.00
448.19,3134.00
450.82,3219.00
453.45,3325.00
456.07,3293.00
458.70,3314.00
461.32,3230.00
463.94,3155.00
466.55,3219.00
469.17,3262.00
471.78,3303.00
474.39,3240.00
477.00,3241.00
479.61,3230.00
482.22,3156.00
484.82,3209.00
487.42,3156.00
490.02,3145.00
492.62,3272.00
495.21,3187.00
497.81,3156.00
500.40,3082.00
502.99,3018.00
505.58,3167.00
508.17,3187.00
510.75,3081.00
513.33,3039.00
515.91,3071.00
518.49,3060.00
521.07,3092.00
523.65,3155.00
526.22,3071.00
528.79,3177.00
531.36,3198.00
533.93,3124.00
536.49,3061.00
539.06,3071.00
541.62,3166.00
544.18,3124.00
546.74,3007.00
549.30,2954.00
551.85,3060.00
554.40,3134.00
556.95,3008.00
559.50,3050.00
562.05,3177.00
564.59,3061.00
567.14,3092.00
569.68,3134.00
572.22,3102.00
574.76,3061.00
577.29,2955.00
579.83,2965.00
582.36,3050.00
584.89,3029.00
587.42,2975.00
589.95,2976.00
592.47,2912.00
594.99,2880.00
597.52,2869.00
600.04,2902.00
602.55,2869.00
605.07,2869.00
607.58,2827.00
610.09,2922.00
612.60,3039.00
615.11,2997.00
617.62,2870.00
620.12,2859.00
622.63,2870.00
625.13,2912.00
627.63,2965.00
630.13,2912.00
632.62,2869.00
635.12,2796.00
637.61,2806.00
640.10,2827.00
642.59,2764.00
645.07,2764.00
647.56,2775.00
650.04,2848.00
652.52,2774.00
655.00,2700.00
657.48,2764.00
659.96,2785.00
662.43,2754.00
664.90,2764.00
667.37,2701.00
669.84,2679.00
672.31,2711.00
674.78,2700.00
677.24,2700.00
679.70,2764.00
682.16,2806.00
684.62,2817.00
687.08,2743.00
689.53,2520.00
691.98,2531.00
694.43,2626.00
696.88,2584.00
699.33,2573.00
701.78,2594.00
704.22,2636.00
706.66,2647.00
709.10,2615.00
711.54,2669.00
713.98,2721.00
716.42,2701.00
718.85,2732.00
721.28,2668.00
723.71,2679.00
726.14,2807.00
728.57,2902.00
730.99,2807.00
733.41,2700.00
735.83,2764.00
738.25,2827.00
740.67,2690.00
743.09,2594.00
745.50,2541.00
747.91,2521.00
750.33,2520.00
752.73,2583.00
755.14,2478.00
757.55,2552.00
759.95,2584.00
762.35,2489.00
764.75,2446.00
767.15,2488.00
769.55,2509.00
771.95,2404.00
774.34,2361.00
776.73,2436.00
779.12,2510.00
781.51,2499.00
783.90,2446.00
786.28,2351.00
788.67,2361.00
791.05,2414.00
793.43,2415.00
795.80,2382.00
798.18,2372.00
800.56,2425.00
802.93,2477.00
805.30,2509.00
807.67,2446.00
810.04,2447.00
812.40,2382.00
814.77,2425.00
817.13,2361.00
819.49,2298.00
821.85,2256.00
824.21,2340.00
826.57,2266.00
828.92,2298.00
831.27,2309.00
833.63,2330.00
835.98,2224.00
838.32,2171.00
840.67,2234.00
843.01,2298.00
845.36,2309.00
847.70,2277.00
850.04,2287.00
852.37,2277.00
854.71,2214.00
857.05,2256.00
859.38,2267.00
861.71,2192.00
864.04,2234.00
866.37,2213.00
868.69,2181.00
871.02,2150.00
873.34,2160.00
875.66,2161.00
877.98,2139.00
880.30,2097.00
882.62,2118.00
884.93,2107.00
887.24,2076.00
889.55,2214.00
891.86,2256.00
894.17,2160.00
896.48,2139.00
898.78,2224.00
901.09,2181.00
903.39,2161.00
905.69,2107.00
907.99,2043.00
910.28,2055.00
912.58,2086.00
914.87,2043.00
917.16,2033.00
919.45,2043.00
921.74,2076.00
924.03,2128.00
926.31,2044.00
928.60,2001.00
930.88,2001.00
933.16,2022.00
935.44,2033.00
937.72,2086.00
939.99,2065.00
942.26,2022.00
944.54,2002.00
946.81,2043.00
949.08,2044.00
951.34,2097.00
953.61,2054.00
955.87,2075.00
958.14,2107.00
960.40,2012.00
962.66,1991.00
964.92,1991.00
967.17,1928.00
969.43,1906.00
971.68,1927.00
973.93,1928.00
976.18,1917.00
978.43,1906.00
980.68,1896.00
982.92,1927.00
985.17,1916.00
987.41,1874.00
989.65,1864.00
991.89,1853.00
994.12,1896.00
996.36,1821.00
998.59,1758.00
1000.83,1800.00
1003.06,1853.00
1005.29,1810.00
1007.51,1864.00
1009.74,1853.00
1011.97,1821.00
1014.19,1811.00
1016.41,1853.00
1018.63,1843.00
1020.85,1821.00
1023.07,1800.00
1025.28,1843.00
1027.49,1863.00
1029.71,1874.00
1031.92,1811.00
1034.13,1779.00
1036.33,1800.00
1038.54,1831.00
1040.74,1821.00
1042.95,1822.00
1045.15,1726.00
1047.35,1673.00
1049.55,1758.00
1051.74,1800.00
1053.94,1811.00
1056.13,1832.00
1058.32,1737.00
1060.51,1758.00
1062.70,1758.00
1064.89,1705.00
1067.08,1737.00
1069.26,1726.00
1071.44,1683.00
1073.63,1758.00
1075.81,1790.00
1077.98,1779.00
1080.16,1822.00
1082.34,1790.00
1084.51,1694.00
1086.68,1705.00
1088.85,1758.00
1091.02,1779.00
1093.19,1673.00
1095.35,1726.00
1097.52,1662.00
1099.68,1652.00
1101.84,1652.00
1104.00,1621.00
1106.16,1641.00
1108.32,1663.00
1110.48,1673.00
1112.63,1621.00
1114.78,1620.00
1116.93,1609.00
1119.08,1609.00
1121.23,1652.00
1123.38,1747.00
1125.52,1684.00
1127.67,1578.00
1129.81,1546.00
1131.95,1546.00
1134.09,1546.00
1136.22,1546.00
1138.36,1546.00
1140.50,1599.00
1142.63,1651.00
1144.76,1578.00
1146.89,1493.00
1149.02,1471.00
1151.15,1515.00
1153.27,1588.00
1155.40,1641.00
1157.52,1493.00
1159.64,1589.00
1161.76,1588.00
1163.88,1536.00
1165.99,1472.00
1168.11,1503.00
1170.22,1588.00
1172.34,1588.00
1174.45,1546.00
1176.56,1599.00
1178.66,1567.00
1180.77,1493.00
1182.88,1503.00
1184.98,1525.00
1187.08,1514.00
1189.18,1462.00
1191.28,1503.00
1193.38,1567.00
1195.47,1493.00
1197.57,1451.00
1199.66,1451.00
1201.75,1461.00
1203.85,1535.00
1205.93,1599.00
1208.02,1588.00
1210.11,1525.00
1212.19,1440.00
1214.28,1461.00
1216.36,1440.00
1218.44,1441.00
1220.52,1472.00
1222.59,1461.00
1224.67,1462.00
1226.74,1430.00
1228.82,1493.00
1230.89,1472.00
1232.96,1440.00
1235.03,1504.00
1237.10,1504.00
1239.16,1461.00
1241.23,1578.00
1243.29,1536.00
1245.35,1556.00
1247.41,1419.00
1249.47,1408.00
1251.53,1482.00
1253.58,1419.00
1255.64,1419.00
1257.69,1471.00
1259.74,1440.00
1261.79,1430.00
1263.84,1397.00
1265.89,1419.00
1267.93,1387.00
1269.98,1419.00
1272.02,1419.00
1274.06,1419.00
1276.10,1429.00
1278.14,1387.00
1280.18,1355.00
1282.22,1345.00
1284.25,1366.00
1286.28,1344.00
1288.32,1324.00
1290.35,1344.00
1292.38,1323.00
1294.40,1345.00
1296.43,1313.00
1298.46,1292.00
1300.48,1291.00
1302.50,1239.00
1304.52,1271.00
1306.54,1366.00
1308.56,1387.00
1310.58,1292.00
1312.59,1398.00
1314.60,1430.00
1316.62,1334.00
1318.63,1387.00
1320.64,1408.00
1322.65,1409.00
1324.65,1397.00
1326.66,1419.00
1328.66,1482.00
1330.66,1440.00
1332.67,1450.00
1334.67,1440.00
1336.66,1377.00
1338.66,1398.00
1340.66,1377.00
1342.65,1303.00
1344.65,1335.00
1346.64,1324.00
1348.63,1345.00
1350.62,1334.00
1352.60,1260.00
1354.59,1217.00
1356.57,1207.00
1358.56,1292.00
1360.54,1313.00
1362.52,1282.00
1364.50,1239.00
1366.48,1186.00
1368.46,1207.00
1370.43,1271.00
1372.41,1250.00
1374.38,1239.00
1376.35,1218.00
1378.32,1239.00
1380.29,1228.00
1382.25,1260.00
1384.22,1324.00
1386.18,1271.00
1388.15,1228.00
1390.11,1218.00
1392.07,1218.00
1394.03,1218.00
1395.99,1260.00
1397.94,1175.00
1399.90,1175.00
1401.85,1218.00
1403.80,1186.00
1405.76,1208.00
1407.71,1175.00
1409.65,1197.00
1411.60,1207.00
1413.55,1186.00
1415.49,1154.00
1417.44,1122.00
1419.38,1080.00
1421.32,1144.00
1423.26,1112.00
1425.19,1090.00
1427.13,1155.00
1429.07,1207.00
1431.00,1175.00
1432.93,1154.00
1434.86,1165.00
1436.79,1155.00
1438.72,1165.00
1440.65,1250.00
1442.57,1207.00
1444.50,1186.00
1446.42,1143.00
1448.34,1133.00
1450.26,1154.00
1452.18,1122.00
1454.10,1112.00
1456.02,1091.00
1457.93,1080.00
1459.85,1102.00
1461.76,1069.00
1463.67,1017.00
1465.58,1123.00
1467.49,1144.00
1469.40,1070.00
1471.31,1038.00
1473.21,1038.00
1475.11,1080.00
1477.02,1080.00
1478.92,1069.00
1480.82,1017.00
1482.72,985.00
1484.61,1059.00
1486.51,1070.00
1488.40,1037.00
1490.30,1016.00
1492.19,1038.00
1494.08,1070.00
1495.97,1048.00
1497.86,1059.00
1499.74,1037.00
1501.63,1037.00
1503.51,995.00
1505.40,1037.00
1507.28,1006.00
1509.16,995.00
1511.04,1017.00
1512.92,1016.00
1514.79,1017.00
1516.67,1038.00
1518.54,1027.00
1520.42,1048.00
1522.29,1080.00
1524.16,1069.00
1526.03,1027.00
1527.89,1027.00
1529.76,1038.00
1531.63,1059.00
1533.49,1059.00
1535.35,1037.00
1537.21,1016.00
1539.07,1049.00
1540.93,1091.00
1542.79,1048.00
1544.65,953.00
1546.50,943.00
1548.36,1017.00
1550.21,995.00
1552.06,984.00
1553.91,1006.00
1555.76,1016.00
1557.61,995.00
1559.45,985.00
1561.30,1017.00
1563.14,975.00
1564.98,890.00
1566.82,953.00
1568.67,921.00
1570.50,910.00
1572.34,932.00
1574.18,921.00
1576.01,942.00
1577.85,953.00
1579.68,879.00
1581.51,910.00
1583.34,932.00
1585.17,932.00
1587.00,942.00
1588.82,921.00
1590.65,911.00
1592.47,953.00
1594.30,1006.00
1596.12,953.00
1597.94,868.00
1599.76,931.00
1601.57,900.00
1603.39,901.00
1605.21,953.00
1607.02,868.00
1608.83,890.00
1610.64,879.00
1612.45,804.00
1614.26,773.00
1616.07,826.00
1617.88,868.00
1619.68,890.00
1621.49,879.00
1623.29,879.00
1625.09,837.00
1626.89,837.00
1628.69,868.00
1630.49,879.00
1632.29,847.00
1634.08,794.00
1635.88,784.00
1637.67,847.00
1639.46,794.00
1641.25,741.00
1643.04,762.00
1644.83,869.00
1646.62,868.00
1648.41,921.00
1650.19,911.00
1651.97,837.00
1653.76,847.00
1655.54,815.00
1657.32,783.00
1659.10,816.00
1660.88,858.00
1662.65,826.00
1664.43,857.00
1666.20,857.00
1667.97,815.00
1669.75,762.00
1671.52,805.00
1673.29,794.00
1675.05,804.00
1676.82,879.00
1678.59,847.00
1680.35,847.00
1682.11,805.00
1683.88,762.00
1685.64,795.00
1687.40,763.00
1689.16,730.00
1690.91,720.00
1692.67,741.00
1694.42,752.00
1696.18,763.00
1697.93,773.00
1699.68,763.00
1701.43,784.00
1703.18,815.00
1704.93,783.00
1706.68,805.00
1708.42,784.00
1710.17,763.00
1711.91,763.00
1713.65,773.00
1715.39,731.00
1717.13,698.00
1718.87,678.00
1720.61,720.00
1722.35,742.00
1724.08,720.00
1725.81,720.00
1727.55,699.00
1729.28,699.00
1731.01,752.00
1732.74,710.00
1734.47,752.00
1736.19,731.00
1737.92,784.00
1739.64,762.00
1741.37,710.00
1743.09,730.00
1744.81,720.00
1746.53,741.00
1748.25,731.00
1749.97,667.00
1751.68,604.00
1753.40,614.00
1755.11,678.00
1756.83,677.00
1758.54,667.00
1760.25,677.00
1761.96,709.00
1763.67,699.00
1765.38,699.00
1767.08,688.00
1768.79,698.00
1770.49,636.00
1772.19,678.00
1773.90,720.00
1775.60,741.00
1777.30,741.00
1778.99,678.00
1780.69,593.00
1782.39,593.00
1784.08,593.00
1785.78,635.00
1787.47,689.00
1789.16,741.00
1790.85,710.00
1792.54,635.00
1794.23,604.00
1795.91,646.00
1797.60,677.00
1799.28,646.00
1800.97,572.00
1802.65,593.00
1804.33,593.00
1806.01,593.00
1807.69,582.00
1809.37,646.00
1811.05,656.00
1812.72,636.00
1814.40,614.00
1816.07,657.00
1817.74,625.00
1819.41,635.00
1821.08,657.00
1822.75,625.00
1824.42,550.00
1826.09,572.00
1827.75,551.00
1829.42,593.00
1831.08,625.00
1832.74,593.00
1834.40,593.00
1836.06,593.00
1837.72,603.00
1839.38,614.00
1841.04,593.00
1842.69,571.00
1844.35,562.00
1846.00,624.00
1847.65,646.00
1849.30,603.00
1850.95,635.00
1852.60,614.00
1854.25,572.00
1855.90,551.00
1857.54,593.00
1859.19,656.00
1860.83,656.00
1862.47,678.00
1864.12,604.00
1865.76,551.00
1867.40,625.00
1869.03,614.00
1870.67,593.00
1872.31,593.00
1873.94,540.00
1875.57,571.00
1877.21,572.00
1878.84,593.00
1880.47,540.00
1882.10,497.00
1883.73,540.00
1885.35,530.00
1886.98,530.00
1888.61,508.00
1890.23,509.00
1891.85,550.00
1893.47,509.00
1895.09,487.00
1896.71,572.00
1898.33,540.00
1899.95,572.00
1901.57,572.00
1903.18,582.00
1904.80,562.00
1906.41,476.00
1908.02,508.00
1909.63,530.00
1911.24,519.00
1912.85,519.00
1914.46,466.00
1916.07,509.00
1917.67,498.00
1919.28,529.00
1920.88,519.00
1922.48,530.00
1924.08,466.00
1925.68,477.00
1927.28,466.00
1928.88,519.00
1930.48,519.00
1932.07,508.00
1933.67,509.00
1935.26,541.00
1936.86,572.00
1938.45,509.00
1940.04,445.00
1941.63,487.00
1943.22,498.00
1944.80,455.00
1946.39,424.00
1947.98,423.00
1949.56,434.00
1951.14,434.00
1952.73,466.00
1954.31,508.00
1955.89,465.00
1957.47,466.00
1959.05,487.00
1960.62,509.00
1962.20,540.00
1963.77,497.00
1965.35,508.00
1966.92,530.00
1968.49,487.00
1970.06,540.00
1971.63,508.00
1973.20,476.00
1974.77,466.00
1976.34,455.00
1977.90,456.00
1979.47,424.00
1981.03,434.00
1982.59,508.00
1984.15,445.00
1985.71,423.00
1987.27,445.00
1988.83,455.00
1990.39,466.00
1991.94,466.00
1993.50,466.00
1995.05,476.00
1996.61,413.00
1998.16,424.00
1999.71,466.00
2001.26,413.00
2002.81,435.00
2004.36,445.00
2005.91,487.00
2007.45,466.00
2009.00,466.00
2010.54,403.00
2012.08,402.00
2013.62,424.00
2015.17,434.00
2016.71,381.00
2018.24,403.00
2019.78,413.00
2021.32,423.00
2022.85,424.00
2024.39,423.00
2025.92,423.00
2027.46,444.00
2028.99,445.00
2030.52,444.00
2032.05,445.00
2033.58,455.00
2035.10,466.00
2036.63,381.00
2038.16,402.00
2039.68,392.00
2041.21,350.00
2042.73,381.00
2044.25,371.00
2045.77,392.00
2047.29,392.00
2048.81,371.00
2050.33,382.00
2051.84,360.00
2053.36,360.00
2054.87,434.00
2056.39,466.00
2057.90,371.00
2059.41,339.00
2060.92,371.00
2062.43,424.00
2063.94,445.00
2065.45,423.00
2066.95,413.00
2068.46,371.00
2069.96,328.00
2071.47,318.00
2072.97,392.00
2074.47,391.00
2075.97,392.00
2077.47,381.00
2078.97,403.00
2080.47,402.00
2081.96,381.00
2083.46,360.00
2084.95,339.00
2086.45,371.00
2087.94,371.00
2089.43,381.00
2090.92,339.00
2092.41,339.00
2093.90,328.00
2095.39,318.00
2096.88,381.00
2098.36,349.00
2099.85,391.00
2101.33,413.00
2102.81,403.00
2104.30,371.00
2105.78,339.00
2107.26,350.00
2108.74,339.00
2110.21,339.00
2111.69,297.00
2113.17,307.00
2114.64,370.00
2116.12,381.00
2117.59,349.00
2119.06,307.00
2120.53,296.00
2122.00,381.00
2123.47,381.00
2124.94,381.00
2126.41,328.00
2127.87,339.00
2129.34,297.00
2130.80,318.00
2132.27,297.00
2133.73,318.00
2135.19,317.00
2136.65,307.00
2138.11,286.00
2139.57,297.00
2141.03,339.00
2142.48,339.00
2143.94,296.00
2145.39,381.00
2146.85,371.00
2148.30,392.00
2149.75,339.00
2151.20,318.00
2152.65,339.00
2154.10,360.00
2155.55,318.00
2157.00,296.00
2158.44,360.00
2159.89,329.00
2161.33,307.00
2162.78,307.00
2164.22,297.00
2165.66,275.00
2167.10,317.00
2168.54,307.00
2169.98,339.00
2171.42,349.00
2172.85,339.00
2174.29,275.00
2175.72,297.00
2177.16,329.00
2178.59,286.00
2180.02,286.00
2181.45,339.00
2182.88,318.00
2184.31,254.00
2185.74,265.00
2187.17,297.00
2188.59,360.00
2190.02,339.00
2191.44,339.00
2192.87,318.00
2194.29,296.00
2195.71,317.00
2197.13,329.00
2198.55,307.00
2199.97,307.00
2201.39,318.00
2202.81,286.00
2204.22,297.00
2205.64,297.00
2207.05,328.00
2208.46,318.00
2209.88,317.00
2211.29,339.00
2212.70,317.00
2214.11,297.00
2215.52,254.00
2216.92,264.00
2218.33,286.00
2219.74,297.00
2221.14,244.00
2222.54,286.00
2223.95,275.00
2225.35,275.00
2226.75,275.00
2228.15,254.00
2229.55,286.00
2230.95,264.00
2232.35,254.00
2233.74,276.00
2235.14,254.00
2236.53,285.00
2237.93,276.00
2239.32,233.00
2240.71,276.00
2242.10,275.00
2243.49,297.00
2244.88,244.00
2246.27,254.00
2247.66,254.00
2249.04,254.00
2250.43,296.00
2251.81,286.00
2253.20,254.00
2254.58,255.00
2255.96,286.00
2257.34,254.00
2258.72,255.00
2260.10,275.00
2261.48,254.00
2262.86,255.00
2264.23,307.00
2265.61,318.00
2266.98,254.00
2268.36,286.00
2269.73,275.00
2271.10,233.00
2272.47,254.00
2273.84,233.00
2275.21,212.00
2276.58,212.00
2277.95,233.00
2279.31,255.00
2280.68,254.00
2282.05,264.00
2283.41,212.00
2284.77,222.00
2286.13,201.00
2287.50,275.00
2288.86,286.00
2290.22,233.00
2291.57,223.00
2292.93,265.00
2294.29,233.00
2295.64,191.00
2297.00,222.00
2298.35,233.00
2299.71,255.00
2301.06,275.00
2302.41,297.00
2303.76,233.00
2305.11,191.00
2306.46,222.00
2307.81,222.00
2309.15,244.00
2310.50,255.00
2311.84,264.00
2313.19,233.00
2314.53,212.00
2315.87,170.00
2317.22,191.00
2318.56,191.00
2319.90,201.00
2321.24,212.00
2322.57,191.00
2323.91,201.00
2325.25,233.00
2326.58,244.00
2327.92,275.00
2329.25,255.00
2330.58,254.00
2331.91,244.00
2333.25,255.00
2334.58,233.00
2335.90,264.00
2337.23,202.00
2338.56,191.00
2339.89,201.00
2341.21,212.00
2342.54,233.00
2343.86,190.00
2345.19,191.00
2346.51,212.00
2347.83,233.00
2349.15,232.00
2350.47,212.00
2351.79,254.00
2353.11,233.00
2354.42,286.00
2355.74,254.00
2357.06,254.00
2358.37,275.00
2359.68,244.00
2361.00,169.00
2362.31,158.00
2363.62,212.00
2364.93,191.00
2366.24,212.00
2367.55,233.00
2368.86,212.00
2370.16,212.00
2371.47,254.00
2372.77,244.00
2374.08,212.00
2375.38,212.00
2376.68,244.00
2377.98,244.00
2379.29,254.00
2380.59,212.00
2381.88,212.00
2383.18,201.00
2384.48,211.00
2385.78,201.00
2387.07,191.00
2388.37,223.00
2389.66,201.00
2390.95,212.00
2392.25,233.00
2393.54,201.00
2394.83,169.00
2396.12,170.00
2397.41,170.00
2398.70,170.00
2399.98,169.00
2401.27,211.00
2402.55,254.00
2403.84,212.00
2405.12,201.00
2406.41,169.00
2407.69,127.00
2408.97,137.00
2410.25,190.00
2411.53,169.00
2412.81,169.00
2414.09,170.00
2415.36,169.00
2416.64,202.00
2417.91,233.00
2419.19,191.00
2420.46,202.00
2421.74,212.00
2423.01,212.00
2424.28,222.00
2425.55,212.00
2426.82,212.00
2428.09,190.00
2429.36,201.00
2430.62,170.00
2431.89,158.00
2433.15,149.00
2434.42,96.00
2435.68,148.00
2436.94,170.00
2438.21,191.00
2439.47,170.00
2440.73,170.00
2441.99,191.00
2443.25,180.00
2444.51,170.00
2445.76,180.00
2447.02,170.00
2448.27,148.00
2449.53,169.00
2450.78,180.00
2452.03,233.00
2453.29,222.00
2454.54,191.00
2455.79,202.00
2457.04,202.00
2458.29,201.00
2459.54,212.00
2460.78,212.00
2462.03,148.00
2463.27,170.00
2464.52,159.00
2465.76,138.00
2467.01,170.00
2468.25,180.00
2469.49,169.00
2470.73,180.00
2471.97,222.00
2473.21,190.00
2474.45,170.00
2475.69,169.00
2476.92,170.00
2478.16,137.00
2479.39,138.00
2480.63,169.00
2481.86,170.00
2483.09,169.00
2484.32,170.00
2485.56,169.00
2486.79,212.00
2488.02,148.00
2489.24,170.00
2490.47,169.00
2491.70,170.00
2492.92,149.00
2494.15,106.00
2495.37,159.00
2496.60,128.00
2497.82,138.00
2499.04,159.00
2500.26,127.00
2501.48,148.00
2502.70,169.00
2503.92,116.00
2505.14,148.00
2506.36,169.00
2507.58,170.00
2508.79,127.00
2510.01,148.00
2511.22,170.00
2512.43,148.00
2513.64,137.00
2514.86,148.00
2516.07,148.00
2517.28,137.00
2518.49,169.00
2519.70,170.00
2520.90,117.00
2522.11,148.00
2523.32,201.00
2524.52,191.00
2525.73,202.00
2526.93,191.00
2528.13,169.00
2529.33,148.00
2530.54,169.00
2531.74,191.00
2532.94,148.00
2534.14,117.00
2535.33,148.00
2536.53,148.00
2537.73,106.00
2538.92,149.00
2540.12,138.00
2541.31,106.00
2542.51,117.00
2543.70,137.00
2544.89,148.00
2546.08,190.00
2547.27,169.00
2548.46,148.00
2549.65,159.00
2550.84,127.00
2552.03,127.00
2553.21,128.00
2554.40,169.00
2555.58,127.00
2556.77,148.00
2557.95,170.00
2559.13,148.00
2560.31,169.00
2561.50,159.00
2562.68,128.00
2563.85,128.00
2565.03,212.00
2566.21,159.00
2567.39,117.00
2568.56,127.00
2569.74,137.00
2570.91,127.00
2572.09,85.00
2573.26,85.00
2574.43,158.00
2575.61,117.00
2576.78,116.00
2577.95,159.00
2579.12,127.00
2580.29,117.00
2581.45,106.00
2582.62,127.00
2583.79,128.00
2584.95,106.00
2586.12,128.00
2587.28,180.00
2588.44,127.00
2589.61,85.00
2590.77,117.00
2591.93,148.00
2593.09,106.00
2594.25,95.00
2595.41,127.00
2596.56,159.00
2597.72,128.00
2598.88,106.00
2600.03,106.00
2601.19,95.00
2602.34,105.00
2603.50,106.00
2604.65,106.00
2605.80,85.00
2606.95,106.00
2608.10,148.00
2609.25,127.00
2610.40,106.00
2611.55,127.00
2612.70,149.00
2613.84,128.00
2614.99,127.00
2616.13,169.00
2617.28,148.00
2618.42,170.00
2619.56,128.00
2620.71,95.00
2621.85,85.00
2622.99,128.00
2624.13,117.00
2625.27,106.00
2626.40,170.00
2627.54,190.00
2628.68,127.00
2629.81,127.00
2630.95,127.00
2632.08,117.00
2633.22,106.00
2634.35,106.00
2635.48,117.00
2636.61,106.00
2637.74,106.00
2638.87,106.00
2640.00,127.00
2641.13,148.00
2642.26,127.00
2643.39,85.00
2644.51,85.00
2645.64,53.00
2646.76,74.00
2647.89,117.00
2649.01,85.00
2650.13,127.00
2651.25,170.00
2652.38,127.00
2653.50,84.00
2654.62,106.00
2655.73,127.00
2656.85,85.00
2657.97,63.00
2659.09,64.00
2660.20,116.00
2661.32,149.00
2662.43,63.00
2663.55,63.00
2664.66,148.00
2665.77,106.00
2666.88,85.00
2667.99,106.00
2669.10,116.00
2670.21,127.00
2671.32,85.00
2672.43,85.00
2673.54,63.00
2674.64,106.00
2675.75,75.00
2676.85,42.00
2677.96,95.00
2679.06,127.00
2680.16,127.00
2681.26,64.00
2682.37,106.00
2683.47,95.00
2684.57,106.00
2685.66,106.00
2686.76,117.00
2687.86,117.00
2688.96,127.00
2690.05,106.00
2691.15,95.00
2692.24,84.00
2693.34,64.00
2694.43,64.00
2695.52,43.00
2696.62,85.00
2697.71,106.00
2698.80,85.00
2699.89,74.00
2700.98,63.00
2702.06,52.00
2703.15,95.00
2704.24,74.00
2705.32,21.00
2706.41,84.00
2707.49,85.00
2708.58,42.00
2709.66,96.00
2710.74,106.00
2711.83,63.00
2712.91,74.00
2713.99,74.00
2715.07,42.00
2716.15,95.00
2717.22,148.00
2718.30,148.00
2719.38,106.00
2720.45,74.00
2721.53,95.00
2722.60,74.00
2723.68,106.00
2724.75,85.00
2725.82,64.00
2726.89,52.00
2727.97,53.00
2729.04,85.00
2730.11,85.00
2731.17,116.00
2732.24,106.00
2733.31,85.00
2734.38,95.00
2735.44,116.00
2736.51,84.00
2737.57,85.00
2738.64,64.00
2739.70,64.00
2740.76,127.00
2741.82,116.00
2742.89,84.00
2743.95,127.00
2745.01,117.00
2746.07,63.00
2747.12,43.00
2748.18,84.00
2749.24,95.00
2750.29,74.00
2751.35,64.00
2752.40,85.00
2753.46,106.00
2754.51,106.00
2755.57,84.00
2756.62,43.00
2757.67,63.00
2758.72,42.00
2759.77,43.00
2760.82,64.00
2761.87,63.00
2762.91,127.00
2763.96,148.00
2765.01,117.00
2766.05,96.00
2767.10,74.00
2768.14,106.00
2769.19,95.00
2770.23,43.00
2771.27,95.00
2772.31,64.00
2773.35,74.00
2774.40,53.00
2775.43,64.00
2776.47,105.00
2777.51,85.00
2778.55,74.00
2779.59,95.00
2780.62,74.00
2781.66,106.00
2782.69,85.00
2783.73,21.00
2784.76,42.00
2785.79,64.00
2786.82,32.00
2787.85,85.00
2788.89,85.00
2789.92,74.00
2790.94,63.00
2791.97,95.00
2793.00,127.00
2794.03,74.00
2795.05,85.00
2796.08,21.00
2797.11,64.00
2798.13,42.00
2799.15,53.00
2800.18,53.00
2801.20,43.00
2802.22,21.00
2803.24,53.00
2804.26,53.00
2805.28,63.00
2806.30,85.00
2807.32,74.00
2808.34,85.00
2809.35,64.00
2810.37,64.00
2811.39,85.00
2812.40,63.00
2813.41,42.00
2814.43,42.00
2815.44,21.00
2816.45,42.00
2817.46,21.00
2818.48,52.00
2819.49,42.00
2820.49,74.00
2821.50,63.00
2822.51,63.00
2823.52,63.00
2824.53,84.00
2825.53,84.00
2826.54,42.00
2827.54,74.00
2828.55,95.00
2829.55,95.00
2830.55,75.00
2831.55,106.00
2832.56,106.00
2833.56,43.00
2834.56,53.00
2835.56,85.00
2836.56,84.00
2837.55,53.00
2838.55,84.00
2839.55,42.00
2840.54,0.00
2841.54,42.00
2842.53,52.00
2843.53,42.00
2844.52,84.00
2845.51,53.00
2846.51,85.00
2847.50,85.00
2848.49,11.00
2849.48,53.00
2850.47,84.00
2851.46,85.00
2852.45,64.00
2853.43,42.00
2854.42,11.00
2855.41,11.00
2856.39,21.00
2857.38,53.00
2858.36,74.00
2859.34,43.00
2860.33,63.00
2861.31,84.00
2862.29,74.00
2863.27,53.00
2864.25,42.00
2865.23,64.00
2866.21,53.00
2867.19,0.00
2868.17,53.00
2869.14,85.00
2870.12,53.00
2871.09,42.00
2872.07,53.00
2873.04,74.00
2874.02,22.00
2874.99,31.00
2875.96,63.00
2876.93,53.00
2877.91,42.00
2878.88,43.00
2879.85,43.00
2880.82,42.00
2881.78,42.00
2882.75,0.00
2883.72,-21.00
2884.69,0.00
2885.65,21.00
2886.62,21.00
2887.58,21.00
2888.55,85.00
2889.51,63.00
2890.47,64.00
2891.43,0.00
2892.39,21.00
2893.36,85.00
2894.31,106.00
2895.27,85.00
2896.23,32.00
2897.19,42.00
2898.15,32.00
2899.11,53.00
2900.06,43.00
2901.02,11.00
2901.97,21.00
2902.93,74.00
2903.88,84.00
2904.83,43.00
2905.79,42.00
2906.74,74.00
2907.69,85.00
2908.64,106.00
2909.59,84.00
2910.54,53.00
2911.49,21.00
2912.43,53.00
2913.38,63.00
2914.33,42.00
2915.27,43.00
2916.22,85.00
2917.16,85.00
2918.11,74.00
2919.05,85.00
2919.99,53.00
2920.94,-10.00
2921.88,63.00
2922.82,42.00
2923.76,63.00
2924.70,64.00
2925.64,53.00
2926.58,105.00
2927.51,53.00
2928.45,21.00
2929.39,32.00
2930.32,85.00
2931.26,42.00
2932.19,53.00
2933.13,43.00
2934.06,43.00
2934.99,32.00
2935.92,74.00
2936.86,74.00
2937.79,21.00
2938.72,43.00
2939.65,21.00
2940.57,53.00
2941.50,31.00
2942.43,21.00
2943.36,63.00
2944.28,43.00
2945.21,43.00
2946.13,32.00
2947.06,52.00
2947.98,32.00
2948.91,21.00
2949.83,74.00
2950.75,74.00
2951.67,42.00
2952.59,0.00
2953.51,64.00
2954.43,74.00
2955.35,95.00
2956.27,64.00
2957.19,32.00
2958.10,31.00
2959.02,63.00
2959.94,43.00
2960.85,21.00
2961.77,21.00
2962.68,42.00
2963.59,21.00
2964.51,21.00
2965.42,85.00
2966.33,22.00
2967.24,0.00
2968.15,42.00
2969.06,43.00
2969.97,43.00
2970.88,64.00
2971.78,43.00
2972.69,43.00
2973.60,53.00
2974.50,32.00
2975.41,0.00
2976.31,-32.00
2977.22,21.00
2978.12,21.00
2979.02,0.00
2979.93,53.00
2980.83,64.00
2981.73,21.00
2982.63,-31.00
2983.53,-21.00
2984.43,42.00
2985.33,21.00
2986.22,-21.00
2987.12,-64.00
2988.02,-21.00
2988.91,0.00
2989.81,0.00
2990.70,63.00
2991.60,32.00
2992.49,-21.00
2993.38,-21.00
2994.28,-10.00
2995.17,11.00
2996.06,-11.00
2996.95,10.00
2997.84,32.00
2998.73,0.00
2999.62,21.00
3000.51,64.00
3001.40,74.00
3002.28,137.00
3003.17,106.00
3004.05,74.00
3004.94,42.00
3005.82,63.00
3006.71,-31.00
3007.59,-42.00
3008.47,11.00
3009.36,11.00
3010.24,0.00
3011.12,10.00
3012.00,21.00
3012.88,10.00
3013.76,43.00
3014.64,21.00
3015.51,10.00
3016.39,32.00
3017.27,21.00
3018.14,10.00
3019.02,63.00
3019.89,74.00
3020.77,42.00
3021.64,63.00
3022.52,21.00
3023.39,-53.00
3024.26,21.00
3025.13,21.00
3026.00,63.00
3026.87,32.00
3027.74,-11.00
3028.61,-21.00
3029.48,-21.00
3030.35,0.00
3031.21,21.00
3032.08,11.00
3032.95,63.00
3033.81,42.00
3034.68,11.00
3035.54,32.00
3036.40,42.00
3037.27,43.00
3038.13,63.00
3038.99,42.00
3039.85,31.00
3040.71,-10.00
3041.57,-21.00
3042.43,53.00
3043.29,21.00
3044.15,10.00
3045.01,32.00
3045.86,43.00
3046.72,64.00
3047.58,42.00
3048.43,-10.00
3049.29,-31.00
3050.14,21.00
3050.99,11.00
3051.85,42.00
3052.70,32.00
3053.55,85.00
3054.40,42.00
3055.25,0.00
3056.10,43.00
3056.95,0.00
3057.80,0.00
3058.65,11.00
3059.50,21.00
3060.34,43.00
3061.19,32.00
3062.04,-21.00
3062.88,-84.00
3063.73,-53.00
3064.57,21.00
3065.42,0.00
3066.26,32.00
3067.10,0.00
3067.94,10.00
3068.78,32.00
3069.63,53.00
3070.47,21.00
3071.31,21.00
3072.14,21.00
3072.98,10.00
3073.82,0.00
3074.66,-21.00
3075.49,11.00
3076.33,85.00
3077.17,53.00
3078.00,32.00
3078.83,53.00
3079.67,43.00
3080.50,11.00
3081.33,22.00
3082.17,74.00
3083.00,85.00
3083.83,21.00
3084.66,43.00
3085.49,11.00
3086.32,10.00
3087.15,64.00
3087.97,95.00
3088.80,32.00
3089.63,64.00
3090.46,63.00
3091.28,21.00
3092.11,-10.00
3092.93,-10.00
3093.75,64.00
3094.58,21.00
3095.40,0.00
3096.22,42.00
3097.05,42.00
3097.87,31.00
3098.69,43.00
3099.51,32.00
3100.33,22.00
3101.15,0.00
3101.96,0.00
3102.78,32.00
3103.60,32.00
3104.42,0.00
3105.23,-10.00
3106.05,-32.00
3106.86,21.00
3107.68,11.00
3108.49,10.00
3109.30,53.00
3110.12,42.00
3110.93,-53.00
3111.74,-53.00
3112.55,21.00
3113.36,0.00
3114.17,-11.00
3114.98,0.00
3115.79,11.00
3116.60,53.00
3117.40,21.00
3118.21,11.00
3119.02,21.00
3119.82,0.00
3120.63,-21.00
3121.43,-21.00
3122.24,21.00
3123.04,21.00
3123.84,32.00
3124.65,53.00
3125.45,-32.00
3126.25,-21.00
3127.05,-22.00
3127.85,11.00
3128.65,64.00
3129.45,74.00
3130.25,21.00
3131.05,85.00
3131.84,95.00
3132.64,63.00
3133.44,64.00
3134.23,42.00
3135.03,0.00
3135.82,-11.00
3136.62,-32.00
3137.41,-43.00
3138.20,-21.00
3139.00,0.00
3139.79,0.00
3140.58,0.00
3141.37,21.00
3142.16,21.00
3142.95,22.00
3143.74,32.00
3144.53,0.00
3145.32,0.00
3146.10,-21.00
3146.89,-63.00
3147.68,-31.00
3148.46,11.00
3149.25,31.00
3150.03,10.00
3150.82,21.00
3151.60,63.00
3152.38,11.00
3153.17,21.00
3153.95,43.00
3154.73,32.00
3155.51,32.00
3156.29,0.00
3157.07,22.00
3157.85,22.00
3158.63,21.00
3159.41,-11.00
3160.18,42.00
3160.96,85.00
3161.74,-21.00
3162.51,-22.00
3163.29,-21.00
3164.06,0.00
3164.84,43.00
3165.61,0.00
3166.38,-21.00
3167.16,53.00
3167.93,42.00
3168.70,52.00
3169.47,32.00
3170.24,0.00
3171.01,32.00
3171.78,32.00
3172.55,0.00
3173.32,0.00
3174.09,64.00
3174.85,84.00
3175.62,53.00
3176.39,21.00
3177.15,0.00
3177.92,0.00
3178.68,11.00
3179.45,22.00
3180.21,53.00
3180.97,21.00
3181.73,31.00
3182.50,53.00
3183.26,10.00
3184.02,-32.00
3184.78,0.00
3185.54,42.00
3186.30,63.00
3187.05,22.00
3187.81,-21.00
3188.57,-10.00
3189.33,0.00
3190.08,10.00
3190.84,11.00
3191.59,21.00
3192.35,43.00
3193.10,53.00
3193.86,11.00
3194.61,10.00
3195.36,53.00
3196.12,0.00
3196.87,21.00
3197.62,21.00
3198.37,32.00
3199.12,21.00
3199.87,0.00
3200.62,-21.00
3201.36,53.00
3202.11,84.00
3202.86,32.00
3203.61,43.00
3204.35,75.00
3205.10,74.00
3205.84,53.00
3206.59,21.00
3207.33,0.00
3208.08,-21.00
3208.82,0.00
3209.56,0.00
3210.30,32.00
3211.05,53.00
3211.79,21.00
3212.53,-42.00
3213.27,11.00
3214.01,42.00
3214.75,42.00
3215.48,43.00
3216.22,42.00
3216.96,0.00
3217.69,-21.00
3218.43,-64.00
3219.17,-22.00
3219.90,0.00
3220.64,-11.00
3221.37,-22.00
3222.10,-31.00
3222.84,0.00
3223.57,0.00
3224.30,42.00
3225.03,53.00
3225.76,63.00
3226.49,85.00
3227.22,75.00
3227.95,106.00
3228.68,32.00
3229.41,-43.00
3230.14,-64.00
3230.87,0.00
3231.59,-21.00
3232.32,0.00
3233.04,0.00
3233.77,0.00
3234.49,22.00
3235.22,0.00
3235.94,-32.00
3236.66,-21.00
3237.39,63.00
3238.11,63.00
3238.83,-10.00
3239.55,0.00
3240.27,10.00
3240.99,11.00
3241.71,0.00
3242.43,10.00
3243.15,43.00
3243.87,43.00
3244.58,31.00
3245.30,-11.00
3246.02,21.00
3246.73,21.00
3247.45,-21.00
3248.16,0.00
3248.88,42.00
3249.59,-10.00
3250.30,0.00
3251.01,43.00
3251.73,-11.00
3252.44,0.00
3253.15,0.00
3253.86,-11.00
3254.57,21.00
3255.28,10.00
3255.99,-31.00
3256.70,-21.00
3257.41,0.00
3258.11,32.00
3258.82,43.00
3259.53,-22.00
3260.23,21.00
3260.94,11.00
3261.64,0.00
3262.35,11.00
3263.05,-11.00
3263.76,-11.00
3264.46,-21.00
3265.16,-22.00
3265.86,-21.00
3266.56,21.00
3267.26,21.00
3267.97,0.00
3268.67,-10.00
3269.36,-21.00
3270.06,0.00
3270.76,0.00
3271.46,0.00
3272.16,-43.00
3272.85,0.00
